5.888365769261839217e-02,1.231136087813058166e+00
-3.206782227348276004e-02,3.198485878215200362e-01
9.164224417809703829e-04,-2.373125725855384505e-01
1.481570488486451120e-01,-3.595944273397164714e-01
7.503235626156478100e-01,-1.953393046717584847e+00
1.037308014952940560e+00,-2.696717686962684990e+00
6.917656960341411754e-01,-1.524986381124982859e+00
-8.739860534260156244e-02,6.335642125237776756e-02
-7.235531825208795231e-01,9.488397701717005139e-01
-8.921299865271543617e-01,1.667898090882810491e+00
-4.645800650334904747e-01,1.047263427216093223e+00
-2.086358026382657549e-01,2.180240045563184292e-01
-5.448338197913504821e-01,6.144974678388510636e-01
-8.921299865271604679e-01,1.667898090882803386e+00
5.800665457772067324e-01,1.144706475749778019e+00
1.305935510976357961e+00,7.248081454752566266e-01
5.879621869542787094e-01,9.004596133241279388e-01
5.247096894655389060e-02,5.754585208914362315e-01
4.511707920170453245e-02,-1.555987746030879082e-01
-4.253777796748953732e-01,-7.809104633118849614e-01
-5.691989035880272718e-01,3.553224731977232542e-01
-4.893722620969327419e-01,1.667699659601941553e+00
-2.593328105865583266e-01,1.607508783019935050e+00
1.878549602091809378e-01,1.527809796801257392e+00
3.794022336107841231e-02,1.547309995052649434e+00
-4.893722620969327419e-01,1.667699659601941553e+00
-8.420071131979246781e-02,1.677969407875520069e+00
8.151595605670634015e-01,1.193585540659673150e+00
1.028187908168342712e+00,4.110584935812131580e-01
5.781123729032083824e-01,-2.206293126494839885e-01
1.936950770506583874e-01,-5.406064470410668621e-01
3.817280653020346803e-02,1.384331482961171089e-01
7.107419115617390204e-02,3.421871791021942610e-01
5.316842491304787366e-01,-7.976486894302409203e-02
7.629907650937926000e-01,-1.137902716129945702e-01
5.402429292300188202e-01,7.745384784489374626e-03
6.668782604915908518e-02,7.002746123468704675e-02
-8.179941871118975305e-01,5.289574353595209999e-01
-1.029435637984002838e+00,1.106368241437699407e+00
-1.467320645950314917e-01,1.027891680924753581e+00
1.128723867889309673e+00,5.369610961838547913e-01
7.975116576871947860e-01,9.388122898351074497e-01
-1.016531837507904878e+00,1.372922947827558415e+00
-3.298765494403938625e+00,6.695580778018707102e-01
-4.906033342554730226e+00,-8.347732466726481837e-01
-5.105941448207853561e+00,-2.064886708128315984e+00
-4.158620808183645323e+00,-2.138310975389705604e+00
-2.799059391570664523e+00,-9.748960981966934281e-01
-1.593756480893438798e+00,7.085826132759069917e-01
-7.623793820434304758e-01,2.499662067300588042e+00
-3.306828766528819852e-01,3.241311976036009401e+00
-7.314463774060708801e-02,2.495439850017319383e+00
-2.506477461405353171e-02,1.130244448736006158e+00
-5.095948966652407153e-01,1.139957867565426941e+00
-4.519005453906980718e-01,7.690105193026528507e-01
7.026808555502993547e-01,-9.779232574740341910e-01
1.380694341968605299e+00,-1.447592587880512705e+00
1.584891950317584897e+00,-4.923423844102866598e-01
1.765183074656386353e+00,7.097620331708429653e-01
1.392631332690334345e+00,8.347116073672575798e-01
5.476419701335389911e-01,6.934562302429803093e-01
4.108105333203309617e-01,8.271331129284015260e-01
5.460142243181709265e-01,7.941032159785587075e-01
9.466199864206678027e-01,-6.255153524889647265e-01
1.122699890321840144e+00,-2.278311413476055147e+00
7.942806047045672946e-01,-3.156926053642053365e+00
1.833662584440628462e-01,-2.782822543411034300e+00
1.868489803216529799e-01,-1.075847091532350364e+00
5.652170639184924683e-01,4.766595933885880987e-01
4.599998578545258510e-01,6.921946489306762818e-01
8.243742448410938672e-02,4.255041286420888635e-01
-9.546894960899126037e-01,-2.603671951071208079e-01
-2.393437520597925694e+00,-1.234295470126417271e+00
-3.957305758692998943e+00,-2.587153459457841365e+00
-5.494989881704440471e+00,-3.139360247898195233e+00
-6.363778855460359374e+00,-2.748875206849652919e+00
-5.153065617448645774e+00,-1.945168945287084616e+00
-2.623167656399637782e+00,-1.277283829228642809e+00
-1.061745553787274199e+00,-8.824801328557846380e-01
-1.263846532541285539e+00,-5.362719381070120139e-01
-7.137335970770634086e-01,-2.173427992058908353e-01
-1.651589922953806966e-01,-1.642346369138611428e-01
-4.248680611408868768e-01,-3.050875044597921026e-01
-1.811346375027104716e-01,-5.140082301110314722e-01
3.000159121994391831e-01,1.105865043113149898e-01
3.857740652935408021e-01,7.624980242816268294e-01
1.487916958097152687e-01,7.494721265925883280e-01
-6.611172295728888759e-01,1.086183793026062050e+00
-1.177089520618036733e+00,1.237361072240233506e+00
-9.238209039856507543e-01,1.017875434326079631e+00
-1.306209076871963415e+00,3.661580011431920245e-01
-2.548544739940117765e+00,-9.963355202705703739e-01
-2.188626278411843096e+00,-1.351555460187011892e+00
-7.048136230778998534e-01,-3.953366250195479714e-01
-7.606359329738428265e-02,2.704998139514921407e-01
1.588784680882407985e-01,8.215509450282273418e-01
-5.334856778384616978e-03,1.886754418865275174e+00
-2.065018608914122866e-01,2.171564077942079063e+00
-1.657406945016678956e-02,1.043217308099745555e+00
-4.973527915510549818e-02,-2.396625379396983835e-01
-3.826197787951619578e-01,-4.851862357697462325e-01
-7.018063637594408322e-01,-7.455562699831249640e-01
-1.019659501864841555e+00,-8.868543467141127845e-01
-5.679183510116645461e-01,-2.688302258287335600e-01
1.667905598343119578e-01,7.644596147939921593e-01
8.774625186718966185e-01,1.394756979670796593e+00
1.897936300483019201e+00,1.506819662989953290e+00
2.675082674894557755e+00,1.365095146728856346e+00
4.452312764697797576e+00,2.435525429216857773e+00
7.301668996759914876e+00,4.698969435863216582e+00
1.002976647272235056e+01,6.621950345271475413e+00
1.151029909244027571e+01,7.187505495934998656e+00
1.047551696682800504e+01,5.792374533440270312e+00
6.956756734251788643e+00,3.011673208987592609e+00
4.177893193631049051e+00,1.465499496019789127e+00
3.873932774880816776e+00,1.811555054489443428e+00
3.930277930444350254e+00,1.842461138045246694e+00
4.237795215703108909e+00,1.498356569193242338e+00
2.753034429285105222e+00,7.051856788859655056e-01
4.636217606325945817e-01,-6.150941767599352183e-02
1.629522485166000401e+00,4.440954935359806011e-01
2.815094195372857655e+00,1.075703931828853488e+00
1.745901838127180916e+00,4.591602377056226425e-01
-2.782598237256815252e-02,-1.255217541383848445e-01
1.376145656633858405e-01,3.250761996686289956e-01
4.858235003373295169e-01,3.235518286746631444e-01
1.324995934555726729e+00,5.211718586230376093e-01
2.253471400793256141e+00,8.358471656925127169e-01
2.815094195372857655e+00,1.075703931828853488e+00
1.879915746658787468e+00,7.982944562636232755e-01
7.076909193476147442e-01,8.522017307552165466e-02
5.636064218660520320e-01,-5.052868655831823652e-01
3.313463565212141915e-01,-9.347534776937339585e-01
1.748020982164405213e-01,-8.541539873573462671e-01
-1.750591862133308307e-01,2.173840648185273727e-01
7.833482465767470371e-02,3.170537958093637143e-01
2.633140657314114175e-01,-6.013527205870230485e-01
2.298301668993401811e-02,-9.036874322343791954e-01
1.936950770506583874e-01,-5.406064470410668621e-01
1.362695212675153200e-01,-6.732404309063064751e-01
6.480525142657339588e-02,-7.449848661738617261e-01
-1.516321898702942539e-01,-3.305880911967579716e-01
-7.953019624900951046e-01,5.209102638742642011e-01
-9.041368629795932810e-01,3.155531147891020849e-01
-2.650966320912350738e-01,-5.819894797546316667e-01
-1.484982202828658560e-01,-5.058898916473182350e-01
-4.118871247407838165e-01,-4.405770838022217695e-01
-3.208003533335371249e-01,-3.578329112476930640e-01
2.668437452015619271e-02,-3.969148938584542430e-01
1.152531288137731008e-01,-5.456558585010647944e-01
1.032203322296560422e-01,-1.490120617586322416e-01
1.032203322296560422e-01,-1.490120617586322416e-01
-8.585457354806055874e-02,-9.414326836971078638e-01
-1.471130416723813727e-01,-1.186036229365750039e+00
3.760229650571522697e-02,-1.132766231337012819e+00
3.608326225589800207e-02,-1.201633880985051972e+00
-6.162414810391646236e-02,-1.348568957996502338e+00
-1.259949815631786763e-01,-1.791230287731448989e+00
-4.825852871029435165e-01,-2.309437590057846990e+00
-5.358011423238969728e-01,-2.136323409628076764e+00
-2.133549098187073889e-01,-1.277610535423806759e+00
2.106429517056672418e-02,-2.375863418323647558e+00
5.198785158283329988e-01,-3.047838753817230462e+00
6.431028710708680540e-01,-2.918684921331337279e+00
4.138497267270678237e-01,-2.192624399663576362e+00
1.522367402958753613e-01,-1.246889270924904647e+00
6.480525142657339588e-02,-7.449848661738617261e-01
-2.289069421007770277e-01,7.975819032586517476e-02
-1.103535052534498684e+00,9.167173502956980080e-01
-1.705206805022843053e+00,1.141405377336038196e+00
-1.228758342761608224e+00,8.969359117271124004e-01
-4.545859430041107041e-01,1.368063393750481305e-01
-1.374065917739678844e-01,-3.382918796094948055e-01
-1.922863579653304525e-02,-4.410530036616601701e-01
4.842171158834805700e-02,-5.043037773049026118e-01
4.842171158834805700e-02,-5.043037773049026118e-01
1.336131476538503227e-01,-5.232609371541173671e-01
5.250282424802055897e-02,-1.782003140039772338e-01
-1.560595350876110010e-01,7.586028970766101054e-02
-9.760253671485116800e-02,-5.424517581405210315e-02
1.008251462733870535e-01,-3.993876288712477907e-01
4.095971787519863683e-01,-3.537251959620785202e-01
6.276612243903325616e-01,1.817417401129370162e-03
1.106580113835102575e+00,-4.657671945711178846e-02
1.616006975758781827e+00,-5.390058066222224165e-01
7.512214371879698538e-01,-1.090637179561356529e+00
-2.738137175536695667e-01,-8.426389202749208218e-01
-8.596082666162942199e-02,-2.831963622220349808e-01
1.602028725618326876e-01,-2.116387103322006080e-01
-2.550615807289585146e-01,1.583086641781871265e-02
-6.478268842642038727e-01,4.943681119029539883e-01
-6.781836996091543668e-01,7.536384875232593483e-01
1.630891441041794065e-01,-4.456391202945534508e-02
1.196941606608588726e+00,-6.384356168472433701e-01
1.157828573931312333e+00,-3.577445898521922629e-01
5.180220637442077836e-01,7.645389416774532598e-02
-2.515032802077059593e-01,6.653249526435647265e-01
-4.717347434570181020e-01,2.801874092150816176e-01
-1.813322708594906074e-01,-1.325689021258669165e-01
-9.876286059712463539e-02,1.145105621470233065e-01
9.674460088391742540e-02,-4.058930773075073439e-01
3.712813378193361991e-01,-5.226170973762340743e-01
3.375913799041502794e-01,-5.669795441167215788e-01
-4.971850511689318401e-03,-2.701290360891114850e-01
-3.838907485401722997e-01,3.705784842487606090e-01
-6.207542204981073564e-01,6.859179308211116322e-01
-4.701287696792548765e-01,5.047832959687736931e-01
-7.684707436120943869e-02,-2.413894141017150774e-01
6.065843770394485635e-01,-4.835504035503313536e-01
5.581900793575655939e-01,-4.377213893222836605e-01
4.653550951379385042e-02,-6.006253583825348352e-01
2.040863744189241602e-01,-1.845806633963551768e-01
2.803665855589349692e-02,3.264992739761434226e-01
-2.595796884018331530e-01,1.988340325721850155e-01
-1.500660754293320354e-01,-9.385806554610291730e-02
9.236835434005463696e-02,-4.565120264693165453e-01
-6.891036905488258091e-01,-1.690126856377003772e+00
-2.221423757896842766e+00,-3.076494497727134014e+00
-3.801267282885421928e+00,-3.387930363049731941e+00
-3.957305758692998943e+00,-2.587153459457841365e+00
-2.635322519970653588e+00,-1.779495536452072146e+00
-1.371198588312884104e+00,-1.479085328060317783e+00
-3.761331354688823292e-01,-8.556182299496082333e-01
3.676017396798156311e-02,-1.056181194002181606e-01
4.972424971428484608e-01,3.130493622462798275e-01
6.181686133809058958e-01,7.940194589573974504e-01
4.487516825774578444e-01,1.419582223147511035e+00
6.184182911939403032e-02,1.737248075010835224e+00
-1.759901153195272128e-01,1.544494242845564802e+00
6.414832956981759982e-02,9.215758849592173840e-01
2.692173676281418571e-01,8.521886524561730347e-01
-1.279610482616399050e-02,1.134503480854629931e+00
-4.704405468224526362e-04,8.703081622640952419e-01
3.646091101283644997e-01,5.836918897218956737e-01
3.832293986657089868e-01,7.361209377863594527e-01
3.504357248653404144e-01,5.915448460570950084e-01
1.791725399590888002e-01,3.959539429766131824e-02
-5.283804343940571302e-01,6.232110403483988037e-01
-4.639270326876912542e-01,6.012158478319542532e-01
3.993820804792915791e-01,-5.014085464338569054e-01
3.070198375002576308e-01,-3.658975276752164940e-01
-2.318979581192314454e-01,-4.538065605118753870e-02
-2.547464516398637024e-01,2.790827066729406059e-01
8.342603024261487088e-02,4.329091689563062673e-01
4.265679323833945769e-01,2.848781839066740762e-01
5.566174175457468953e-01,2.234025743240207473e-02
4.095971787519863683e-01,-3.537251959620785202e-01
-5.409174782924767305e-02,-4.917268165243005029e-01
-5.651613014936098800e-01,-3.094688935383964612e-01
-1.008568984198693341e+00,-2.687564469995929461e-01
-4.906368246346451412e-01,-5.070517146034086292e-02
2.688781481234580606e-01,2.875134810173268218e-01
3.376347622446954078e-02,-1.199369698712839383e-01
-9.702329617540628864e-03,-5.083890836275453129e-01
-1.218015013047832606e-01,-1.552716694438668887e-01
-8.310643648781668169e-01,4.664474719011855314e-02
-1.767206163909782690e+00,-1.322531519136439238e-01
-2.377547730184471408e+00,-3.418107728342664742e-01
-2.377547730184471408e+00,-3.418107728342664742e-01
-1.824671761633903433e+00,-3.358761168846980394e-01
-1.824671761633903433e+00,-3.358761168846980394e-01
-2.022239867374110656e+00,-5.383013292393606930e-01
-1.395060647818011423e+00,-8.291924585268048986e-01
-6.443655296466523907e-01,-4.199554055325157575e-01
-5.204572309051688217e-01,-1.653502229710158977e-01
-6.885036337228241932e-01,-6.344421913389917123e-01
-5.034336685438850489e-01,-7.537114708569778720e-01
-9.702329617540628864e-03,-5.083890836275453129e-01
-4.845649674471374201e-04,6.850013274285782217e-01
-2.933424576340133427e-01,1.868734705155935094e+00
-4.798473610921052956e-01,2.007144464291672925e+00
-3.468275682703511609e-01,1.866429963693961858e+00
2.473683910674576159e-02,1.863688785235281031e+00
2.619035122257362125e-01,1.461495729247798581e+00
3.113024776567263618e-01,1.029104947623751709e+00
3.504357248653403589e-01,5.915448460570945644e-01
5.312493649567600063e-01,5.487701283129889918e-01
9.937178016925968249e-01,7.071089007290088935e-01
1.397474848212379772e+00,7.078990874905287667e-01
1.912764144914633757e+00,1.000596485779086386e-01
1.924159825189903472e+00,-5.532763234315031253e-01
1.040868647685197157e+00,-6.000363703333330134e-01
-3.150154866543629639e-01,3.939737051455980410e-01
-7.048948475359796406e-01,1.262105937903408304e+00
-5.292852191537078532e-01,1.537540182613853723e+00
-5.292852191537078532e-01,1.537540182613853723e+00
-7.965963862275760032e-01,1.182649831382198702e+00
-6.378292785581816116e-01,2.123110235377066168e-01
-6.956045106358623720e-01,-9.440610535694397010e-01
-3.477678635472655766e-01,-9.285069745440256428e-01
-8.781349360934796733e-03,2.386707025164186077e-02
-4.909172971275885256e-02,-1.637507479916339853e-02
3.045055866706263339e-02,-6.885065747850638296e-02
-1.166151045140508380e+00,-1.131651840870215420e+00
-2.549378696171119785e+00,-2.172765489982038556e+00
-2.737215656099499572e+00,-1.929197683715241585e+00
-1.807483430108008049e+00,-1.735641856764496449e+00
-6.712574019011258164e-01,-1.222728926222488077e+00
-1.514729848965346015e-01,-7.290891014761040623e-01
-2.410727258727207167e-01,-1.020612293374303148e+00
-7.146469509725281721e-01,-1.908622222292978954e+00
-8.303135995016353021e-01,-2.116351000141186933e+00
-4.986227731505177840e-01,-1.194393600758979490e+00
-9.702329617540628864e-03,-5.083890836275453129e-01
6.616989402823156841e-01,-9.465140493429764768e-02
9.862105168080396167e-01,3.584542363658828057e-01
7.328735854960124474e-01,6.522585102483421382e-01
3.504357248653404144e-01,5.915448460570950084e-01
2.369979104412608395e-01,-1.235572059721162103e-01
1.553320116076706003e-01,-9.220267001631349268e-01
-1.069019154806490589e-02,-1.524805856495711209e+00
-3.736519055458254468e-01,-1.496756299798551515e+00
-3.046682653743214009e-01,-9.896858391747109795e-01
1.401384831294516242e-01,-2.592217562399675712e-01
2.144604314812260937e-01,1.164454082918856132e-01
2.545723266553744923e-01,4.486844515600954542e-02
5.325787961711324348e-02,-1.311999893891757918e-01
1.961826963307316263e-01,2.057109594348928688e-03
4.119249808002153346e-01,1.937773249954831412e-01
5.545194359623466518e-01,1.994177836410339077e-01
5.545194359623466518e-01,1.994177836410339077e-01
3.362876748979760078e-01,2.335187765603634058e-01
3.592828048243033034e-01,4.148602802666277456e-01
3.504357248653404144e-01,5.915448460570950084e-01
2.334873556225114111e-01,-8.322217667631480464e-02
1.662928063863789441e-01,-4.013485580463027613e-01
5.816352290499917504e-02,-2.333553295975558661e-01
-1.646927273730089125e-01,-7.792723234549112643e-01
-4.632762333834175572e-02,-1.235179270553648179e+00
5.217820138361445315e-01,-1.126596613311285022e+00
6.311743135739642518e-01,-6.568136060775250362e-01
2.267753131596265126e-01,-1.174326524183524336e-03
1.927701451068807581e-01,2.687747251333811316e-01
7.661165285980402473e-01,1.340981880089985468e-03
7.949348043524183671e-01,-1.406695017214348309e-01
2.810052106799502125e-01,-1.207945911703068864e-01
1.365336898131897791e-01,-3.490597451245840144e-02
2.344246462478730419e-01,-9.301596217818772216e-02
7.173749074116982927e-01,-3.615846721655573970e-01
1.036130589507615163e+00,-2.179772064345489313e-01
4.028845311435499954e-01,-1.926325476668408476e-02
1.204834344016783576e-01,5.073046980695903457e-02
9.207512954358659796e-01,-7.140675119116728607e-03
1.197648014233030134e+00,-1.571071029651962547e-01
1.036130589507615385e+00,-2.179772064345473492e-01
2.021419165780815153e+00,6.435551954163029054e-01
3.274996281044530555e+00,1.657066949479863105e+00
3.210607914602016777e+00,1.507040371412547319e+00
1.954268239085603653e+00,3.036100609683274332e-01
6.865473590427277895e-01,-1.969643551985690300e-01
2.238438752346034177e-01,4.018261495529697191e-02
8.943354567956876555e-02,-9.555181248502570002e-02
7.480263547608157620e-03,-1.340798021939147155e-01
-2.335828832077837744e-02,-6.788490504741998000e-02
2.150733517184917620e-01,-5.306824941278290297e-02
3.883410496291662128e-01,-1.993151369608064938e-01
1.154823426430915401e+00,-7.039168584753193736e-01
2.184571870555179984e+00,-6.231388666806971788e-01
2.013585244438020005e+00,-2.164105539070501349e-01
9.207512954358659796e-01,-7.140675119116728607e-03
5.599271245581036727e-01,-2.616956280404481583e-01
6.405258464784090444e-01,-9.847945703330079903e-01
4.057401365893079648e-01,-2.022275924386119694e+00
-2.081511331648404073e-01,-2.771289366772192952e+00
-7.313969703990057525e-01,-2.762806256842329500e+00
-6.207584762533858713e-01,-2.369522683777621097e+00
-1.449234929663331672e-01,-1.710934669765875160e+00
3.655976773959378808e-03,-6.402338284531736701e-01
1.534696141812337544e-01,3.676363165373867092e-01
5.452934357816353605e-01,3.251033323431005151e-01
7.228828994897998905e-01,5.034332327740410895e-02
1.032404893878255514e+00,3.687165324543703604e-02
1.343591202554255126e+00,4.909393452893138533e-03
8.143481929896141391e-01,-1.429200769968383689e-01
1.727489043341043917e-01,-2.869354523960754300e-01
4.706116100076619679e-02,-4.182245238511631547e-01
-4.774247210214735415e-02,-1.431225548625762733e-01
-1.304454302434399776e-02,2.868247179727509422e-01
1.995969723445305266e-01,3.551210833370243014e-01
1.288608708981886231e-01,1.770208522414031538e-01
-1.415145947282004171e-02,-2.441429228736599899e-01
-1.775666496956912199e-01,-5.624902095390008627e-01
-3.619686008600682681e-01,-6.112861459177653112e-01
-4.046517247218416879e-01,-9.061207201585298465e-01
-4.139343998904012611e-01,-1.349099197672443795e+00
-3.025159998593734412e-01,-1.404225467049536435e+00
-1.110287388131340480e-01,-9.322235212480973754e-01
-1.179807284984341759e-01,-4.920647723024806908e-01
-1.179807284984341759e-01,-4.920647723024806908e-01
2.542653140920332344e-01,-1.737088496683078243e-01
2.260518050738088147e-01,1.152362320890667757e-01
-2.167490614639990265e-01,3.488273017052133645e-03
-5.920527125776938598e-02,-1.966300976289526159e-01
2.837386880573191106e-01,-3.011571017572515219e-01
1.891178674416318928e-01,-9.102766551612315182e-02
-1.580824404539926120e-01,-2.241264272211159481e-01
-2.456546307049700117e-01,-1.766049387593372488e-01
-1.304454302434399776e-02,2.868247179727509422e-01
1.995969723445305266e-01,3.551210833370243014e-01
1.288608708981886231e-01,1.770208522414031538e-01
-1.415145947282004171e-02,-2.441429228736599899e-01
4.927620808112665590e-02,-5.624946119012678158e-01
-1.832782410609386514e-01,-8.966876938619107174e-01
-4.139343998904012611e-01,-1.349099197672443795e+00
-3.025159998593734412e-01,-1.404225467049536435e+00
-1.657152321787343924e-02,-9.430667753004180476e-01
-2.496998132993386577e-01,3.857635593244359562e-01
-6.526069870434453302e-01,1.376660749181648935e+00
-4.143485662835885708e-01,9.755564920100529003e-01
3.351872929065802809e-01,9.954648138668567015e-01
7.718373279655267316e-01,1.917207642086001806e+00
4.852983566320600572e-01,2.020918691070562545e+00
-2.534220320588947972e-01,2.081790085265109891e+00
-8.213374909969327620e-01,2.225050660907628153e+00
-9.120329032888612186e-01,1.512319040585250240e+00
-2.379686486516956745e-01,-7.693227821518683340e-02
1.703596074293399487e-01,-9.891699080648954645e-01
5.460559090621171924e-02,-6.657814051166166536e-01
1.548987178280093746e-02,-3.093614284743473886e-01
-1.431235148125426238e-01,4.122086594711266705e-01
-2.753905701813865736e-01,1.148070061903540884e+00
8.855932697715813706e-01,1.255140392618130374e+00
1.724387035229786536e+00,1.229801285650927944e+00
1.256817778888619230e+00,1.422892548238898547e+00
8.133940281758129665e-01,1.024459108428380505e+00
4.412507842412382031e-01,2.140427067060692579e-01
-2.496998132993386577e-01,3.857635593244359562e-01
-6.526069870434453302e-01,1.376660749181648935e+00
-6.161873669826484212e-01,1.578725597653842572e+00
-6.161873669826484212e-01,1.578725597653842572e+00
-6.700743698105018353e-01,1.581514127261076874e+00
-6.700743698105018353e-01,1.581514127261076874e+00
-3.787933829911081518e-01,8.853626456446718196e-01
-1.793017956199318141e-01,8.241433388605286237e-02
-6.444954431732780042e-01,1.018155955398217127e+00
-9.120329032888612186e-01,1.512319040585250240e+00
-8.054144139902523758e-01,1.699900932136902743e+00
-7.123537186747364025e-01,2.762523681195386605e+00
-4.572037167083111142e-01,3.151134598580665358e+00
-1.846005895809356423e-01,2.681069246428440245e+00
-1.380833750359477530e-01,1.464512555887420797e+00
-6.200145236982821384e-01,1.042336255585412985e+00
-8.921299865271604679e-01,1.667898090882803386e+00
-3.751730771095445061e-01,7.296437802170870901e-01
-1.833748259151196380e-01,-4.025611356242111971e-02
-5.659481216032922202e-01,6.279258122089195204e-01
-1.157416982891926960e+00,1.581025885666614839e+00
-1.454377856159878135e+00,1.934134593140610869e+00
-1.257898309656217739e+00,1.682312167303312123e+00
-8.921299865271604679e-01,1.667898090882803386e+00
-5.935249230492512656e-02,1.565460989877004883e+00
6.704972695664108695e-01,1.331286141593352124e+00
3.174406409540117546e-02,1.635033055473562813e+00
-7.166649115124591463e-01,2.435568366740695101e+00
-4.315773801172981261e-01,3.152969718052277326e+00
-6.019211287607654226e-01,3.046283929181674566e+00
-6.638158871809913819e-01,1.843031131076989348e+00
-3.660076989341600751e-01,9.452725935040283689e-01
-9.120470886811747613e-02,2.099238322559894843e-01
-3.620100755981823237e-01,6.256205391080690292e-01
-1.398411467105490358e-01,1.307447894821398338e+00
4.905184027049319662e-01,9.490499278829944707e-01
2.895738119424937085e-01,2.192592531600185413e-01
8.835483853954179123e-02,-1.559156141452838762e-01
-4.651354213313683705e-01,1.104590684422167124e+00
-8.576395027715930652e-01,1.445714657967662742e+00
-7.753760446349116098e-01,8.809029120080797970e-01
-9.367798871613031153e-01,8.287365783385557405e-01
-1.001600296233924769e+00,1.110729268405466375e+00
-4.525890039941934395e-01,1.215818580238962721e+00
-2.909953285795728317e-01,1.357810906929526995e+00
-8.859065018097588284e-01,1.744765766328623124e+00
-1.535288085731459695e+00,2.057384976959397260e+00
-1.814758019906245412e+00,2.164971218894594873e+00
-1.012652994595004685e+00,1.351214030791849652e+00
-5.026324618897175522e-01,8.523427905592271259e-01
-8.685764274028396903e-01,1.456378113773116212e+00
-8.464683943101730668e-01,2.885514262494471627e+00
-5.157553084036997637e-01,3.994749022592805954e+00
-3.720715038836000521e-01,4.047290511012440639e+00
-6.019211287607654226e-01,3.046283929181674566e+00
-9.590421424724012711e-01,2.259355975628041246e+00
-1.075115496480268495e+00,2.044805908886206502e+00
-9.616482002806472362e-01,2.210025513531878261e+00
-8.286974815959370355e-01,1.899475996661480925e+00
-8.446734101450887877e-01,1.309780279830267569e+00
-8.722927767135156829e-01,1.160203320068950328e+00
-9.612743764142671621e-01,1.553764737729738776e+00
-1.086031163219898676e+00,1.615684599544546352e+00
-1.062049093312797510e+00,1.365827209792710217e+00
-8.921299865271604679e-01,1.667898090882803386e+00
-1.748447290141888155e+00,2.689942580252222992e+00
-3.843873946123557594e+00,4.131563037290181484e+00
-6.445152434759748417e+00,5.134673179985688840e+00
-8.410362094025812141e+00,5.036579011408550244e+00
-9.088895902924399195e+00,4.339693286628297564e+00
-8.089505125350951786e+00,3.460993279236818321e+00
-5.545201678836374271e+00,2.511415368779801316e+00
-2.678060191970641490e+00,1.765281245504594754e+00
-8.921299865271604679e-01,1.667898090882803386e+00
-7.522881046228853119e-01,1.572644619741803362e+00
-9.093625415270031320e-01,1.681388740890830791e+00
-1.075115496480268273e+00,2.044805908886206502e+00
-9.616482002806472362e-01,2.210025513531878261e+00
-5.921006993112728489e-01,1.710732799840304352e+00
-6.761343232271014303e-01,2.013128494929596002e+00
-7.604300465037032719e-01,1.265001567499460577e+00
-1.022340317846617941e+00,1.409817320138432750e+00
-6.510203558938552071e-01,1.099418220577961014e+00
7.672818229270893242e-02,8.282058407992063387e-01
5.416418547797005045e-01,1.638827629729157298e+00
3.970094708592506461e-01,2.422117616935492102e+00
-2.143386570164907967e-01,2.579286727422844372e+00
-8.213374909969320958e-01,2.225050660907627709e+00
-1.065941433830530416e+00,1.778384980311319641e+00
-8.921299865271604679e-01,1.667898090882803386e+00
-8.110341940048771958e-01,1.551509935283502006e+00
-7.846522309774751625e-01,1.295480336453595172e+00
-1.037885837395073452e+00,1.426645123891688183e+00
-1.087803059295631369e+00,1.415966204527827399e+00
-1.797093989679016679e-01,7.902381269022449306e-01
4.917607781407471457e-01,9.193641703195175319e-02
-7.253811049452910109e-02,1.738821595590256675e-01
-5.529365508438821575e-01,-2.459816660060310800e-01
-5.743238519056291791e-01,-7.760714406992079706e-01
-3.619686008600682681e-01,-6.112861459177653112e-01
-3.168872202013239825e-01,-5.460133635686683640e-01
-3.168872202013239825e-01,-5.460133635686683640e-01
-1.701169197043068404e-01,-6.129319364782410684e-01
2.082207962708708393e-01,-6.175288160522801606e-01
3.707558325839508395e-01,-5.952311836449637461e-01
3.938599939362208979e-01,3.588204036329872837e-01
6.179346380714259013e-01,9.657308330254144035e-01
1.133749155684594889e+00,3.817923971114997039e-01
5.712714330832860954e-01,-6.639599280295491734e-01
-2.916618233003290817e-01,-6.689798776457186458e-01
-2.914355458881868755e-01,-4.727302130691413140e-01
-2.340977993259279466e-01,-6.903677744855410969e-01
-3.753493367518503931e-02,-3.802358162154364507e-01
-5.301496701863954442e-02,-6.322861722634707249e-01
-4.146612834907485723e-02,-3.811547705575172307e-01
5.303215685464193196e-01,6.656006297741146049e-01
5.480699586810192647e-01,4.836741496564248011e-01
-6.065862957863720206e-01,-4.823040508878512211e-01
-1.269899691940359565e+00,-5.313540620802690295e-01
-8.189106774861142357e-01,-1.799181094990657537e-01
3.439505919533974443e-01,4.408686157190685462e-01
1.133749155684594889e+00,3.817923971114997039e-01
1.149604362575832983e+00,-3.673294402044770535e-01
5.671313306149602385e-01,-4.719624719068494789e-01
6.125357208486791327e-01,-1.638932335905788629e-01
5.637242979800967113e-01,-3.699954895934600141e-01
-1.647808714696836763e-01,-5.358798180160904145e-01
-3.171675357245662963e-01,-8.764496512545848494e-01
1.832045110930083653e-01,-1.354383452561540357e+00
6.846904587389713859e-01,-1.317601172674936150e+00
9.230166127120862374e-01,-8.834879278531664326e-01
5.976649856912517045e-01,-5.891303419744335912e-01
2.667534338044355580e-02,-6.965799408205477494e-01
-1.427070077830104866e-01,-1.132836635574365536e+00
-7.065785163522976531e-02,-1.210470086916811239e+00
-1.519178121659875980e-01,-1.043826430696887408e+00
-2.471244952877255929e-01,-1.138682321564114863e+00
-2.551999290588146119e-01,-5.921306439449683934e-01
-2.136305505169864838e-01,1.729913315969860976e-01
-4.143485662835885708e-01,9.755564920100529003e-01
-5.277601766149104812e-01,1.228316798295811862e+00
-1.887934602390835548e-01,2.622563135249426081e-01
-6.423970518758909121e-01,-8.618886788728998827e-01
-1.185868839203643610e+00,-1.435355466996369511e+00
-8.032226621608782313e-01,-1.285592119239634235e+00
-5.301496701863954442e-02,-6.322861722634707249e-01
1.292692878218286712e+00,-6.177717486850755613e-01
1.709549609293130379e+00,-5.436643238165601577e-01
1.076942262905363989e+00,-2.701240969905069900e-01
2.859792997319626107e+00,4.993449628037698873e-01
4.164318904881390893e+00,5.343696761524445726e-01
3.204398215977640962e+00,-4.623608721628786333e-01
1.207156754349176131e+00,-9.426228519565480468e-01
-1.145895133352062972e-01,-9.769448666682392091e-01
-1.169630157470518128e-01,-6.544007927073968167e-01
-9.133384810082079142e-02,3.024337201750789683e-01
-1.632611472461059365e-01,7.037916475183254583e-01
-1.317131366910926586e-03,2.418999926722794347e-01
1.936950770506583874e-01,-5.406064470410668621e-01
8.342960176773174530e-02,-4.443461453409032758e-01
4.910829821876857432e-02,-2.556006892161798438e-01
4.485607616860082247e-02,-2.288529417388254217e-01
-5.847365371080322227e-02,-4.817977405226005205e-02
-2.642281951770194537e-01,4.568182854273662996e-01
-4.739395931599959533e-01,7.720452120040588451e-01
-4.404355525593957044e-01,6.101824939236231149e-01
-2.239050501514939506e-01,2.748107545473495450e-01
-2.644540176733577996e-01,2.715083006221487016e-01
-1.034879944708062272e-01,-3.693310962116041346e-02
1.176307485049802731e-01,-4.021557418885648438e-01
-1.416232725610238642e-02,-1.738835029882176975e-01
-1.041592869539454264e-01,5.896404947005237651e-02
4.260728829965120153e-03,-1.332557178263210906e-01
4.842171158834805700e-02,-5.043037773049026118e-01
3.053883847459497036e-01,-2.065358016550157272e-01
3.845474238012967505e-01,9.061603331564855868e-01
1.780810180017944611e-01,8.383641758447147874e-01
1.091094886476334930e-01,-2.844883062066588253e-01
3.043706446571709523e-01,-4.224751240605712499e-01
1.687293842807862543e+00,-1.286916063177315328e+00
2.938507766179514480e+00,-1.350547313415562112e+00
2.996319202763873868e+00,-4.589450788289426431e-01
2.495292713207391877e+00,-2.976981444517995956e-01
1.530436643112174755e+00,-7.539738756647219597e-01
3.895526028192500823e-01,-7.852171029285432979e-01
1.235870707582295558e-02,-2.733967512832755076e-01
-2.111184962831954004e-01,-7.993993643799179871e-01
-7.183243497441986758e-01,-1.745086713091245301e+00
-1.431686681678974171e+00,-2.502776177605890329e+00
-1.975217225479693806e+00,-2.547081590429310705e+00
-1.818924108367811820e+00,-1.899008616754428225e+00
-1.046063859646182204e+00,-9.379193346185736857e-01
-3.563794547299083404e-01,-2.195217053959061526e-01
-9.794779362133393397e-02,-2.591295617247513783e-01
1.174260009130398130e-01,-6.312163460277115945e-01
-1.750774233717287687e-01,-5.496919775181740020e-01
-1.707047012236953265e-01,-4.392761640055235506e-01
-1.707047012236953265e-01,-4.392761640055235506e-01
-3.043141055561218722e-01,-4.323821782316504825e-01
-9.702329617540628864e-03,-5.083890836275453129e-01
4.722345763898019300e-01,-4.698770692399308890e-01
5.070083458071511506e-01,-7.836580816822944495e-01
1.746076727285443275e-01,-1.283170447295708394e+00
-9.025556374954042671e-02,-1.307438041051596000e+00
-8.134917821692112805e-02,-1.091743150695082543e+00
-1.145895133352062972e-01,-9.769448666682392091e-01
-2.725294937271906526e-01,-6.298316960875738335e-01
-3.502844879042864568e-01,-3.656708692978763997e-01
-2.897823751051983865e-01,-6.792801196907051198e-01
6.934624392471701038e-01,-2.389039141554883283e+00
2.154421448284148166e+00,-4.946655040592144559e+00
2.977895059925597998e+00,-6.955640972396828658e+00
2.523984455147023631e+00,-7.410014550437590053e+00
9.172044368838434547e-01,-6.080570265747614833e+00
-1.025215447183249529e+00,-3.752332885473829371e+00
-1.818924108367811820e+00,-1.899008616754428225e+00
-9.569312903704526585e-01,-1.390482087648380549e+00
-2.262870385139253981e-01,-3.143248783658109335e+00
-1.999026026068669859e-01,-5.627847887882256650e+00
-2.106557599235315270e-01,-6.242556686480611461e+00
-1.939863581099275647e-01,-4.512014436565573661e+00
-4.044075406169441583e-02,-2.086831160508454630e+00
-2.451697882836347264e-01,6.986763312560242412e-01
-2.647768067940192149e-01,8.757141452383352398e-01
-1.580824404539926120e-01,-2.241264272211159481e-01
-1.798289941703486716e-01,-4.627413155316608129e-01
7.263297790738131032e-02,-2.636595099698353373e-01
-2.570343392614669042e-01,7.038677139083193701e-01
-6.801616131750428673e-01,1.377252136328041665e+00
-4.418481582419589437e-01,1.084950663654994374e+00
-1.068499446747431386e-01,3.799615867241440403e-01
5.929661480937558071e-01,1.376905070997783143e-01
8.093823398520013646e-01,-1.250835991003161896e-01
-1.659954197820383004e-01,-1.350978252577556271e-01
-3.640717364438326165e-01,2.498181124340819736e-01
-5.037800463112610677e-02,3.936797880828194485e-01
7.388672116326571171e-01,3.280529530210510303e-02
7.393095699133718224e-01,-1.701992438428207299e-01
7.698341200088568703e-01,-2.219437215691357768e-01
7.949348043524183671e-01,-1.406695017214348309e-01
3.428340749501088691e-01,-1.062105526041795950e-01
-2.405199247752541972e-02,-5.130044534324665895e-01
-8.712707267887466467e-02,-7.001183175137866144e-01
1.258842200291555302e-01,-2.839815126376030174e-01
-1.329941360744339995e-01,-2.088513704238303959e-01
-7.418441944118774334e-01,-3.478923709297524480e-01
-1.082864961803322146e+00,6.690347221484049811e-02
-6.916000199728667974e-01,7.903851444312631758e-01
-2.219136548824987287e-01,1.131665205894526904e+00
-1.075591733862848870e-01,9.483980527743112177e-01
2.901912847792712524e-01,3.348572228713274090e-01
4.437026777232665475e-01,-2.582398690490722570e-01
7.295424369309901069e-02,-3.554701823739712663e-01
-2.560049064668801222e-01,-2.397065306330224688e-01
-2.988036950428015204e-01,-7.810917430381458804e-02
-3.509141264699003893e-01,2.154714176305341788e-01
-3.983414435371945839e-01,8.810243316928846324e-01
-3.884391632662599902e-01,1.210230653647004218e+00
-1.551418053739744840e-01,5.580750327684901313e-01
-2.600635137117687234e-01,-2.317637301213592849e-01
-2.758342226528091579e-01,-2.830032930324252183e-01
1.500606661434076561e-01,-1.101365866435061402e+00
3.213277514336261853e-01,-1.776757882750420237e+00
3.813266123691139153e-01,-1.487599141694287752e+00
1.657298682867200113e-01,-6.020087282819717167e-01
-1.137407242502331689e-01,1.051299984339816307e-01
-7.171678941025073639e-01,-8.336998199940300058e-02
-1.167057707298104763e+00,-3.189749493346384357e-01
-1.043977420298133119e+00,-3.291481415930883614e-01
-1.139707861182410520e+00,-3.044897238738676903e-01
-1.179141600140036994e+00,-2.560070688034312703e-01
-7.260680607606768699e-01,-2.449499666172711976e-01
-2.560049064668801222e-01,-2.397065306330224688e-01
-9.672524581520679232e-02,-2.088363881879259920e-01
-2.600635137117687234e-01,-2.317637301213592849e-01
-1.599762929198736083e+00,5.841635351486679228e-02
-3.271923512952133795e+00,6.274674577875950510e-01
-3.641120507746339552e+00,7.698243365150500006e-01
-2.400594290971097777e+00,2.299780508308887916e-01
-8.728518480081276509e-01,-5.030585281476979143e-02
4.666491574267946085e-02,3.555651430119520229e-01
3.047721729187858331e-01,4.236127744122763494e-01
-7.171678941025073639e-01,-8.336998199940300058e-02
-1.105427567426540358e+00,-3.293709202947888159e-01
-4.858754224999328186e-01,-3.033644806393837046e-01
1.314003439315555855e-01,-2.624902692151679928e-01
-9.730611003048129926e-02,-8.563741615171936716e-02
-1.504454970509845613e-01,2.013404226142991582e-01
2.531843184648897793e+00,-6.918965115706819657e-02
6.642148923879643618e+00,-6.316107081651316513e-01
9.126579132353519697e+00,-8.394940245202648921e-01
8.159447143192759100e+00,-4.297565974119156862e-01
4.525161942121237679e+00,4.351757823329414632e-01
1.392631332690334345e+00,8.347116073672575798e-01
4.449761533042624340e-01,4.190547766480218761e-01
2.399858627386837473e-01,-3.633509204412180282e-02
4.945801825351027747e-01,-2.792414114749094400e-01
2.276585078076574231e-01,-1.994910863931699807e-01
-2.560049064668801222e-01,-2.397065306330224688e-01
6.291583878566797336e-03,2.741339306228149017e-02
2.097908802593113214e-02,4.283036924902750009e-01
-6.141072542033862991e-01,1.292415306013974252e+00
-1.535812658046482371e+00,2.019385504422840594e+00
-2.176974462640605346e+00,1.813830863499803714e+00
-1.852473731007025393e+00,8.642893235727145962e-01
-9.408699527805713947e-01,-1.776228602528486522e-01
-1.838174785561042801e-01,-5.895018077741488449e-01
-1.006048321713003540e-01,-5.840446761265688513e-01
-3.163315538132671634e-02,-5.331712229751026655e-01
5.042352205292083278e-01,-2.239904283295760246e-01
4.604991383156967766e-01,-1.526416818477449588e-01
-7.048247559164630416e-02,1.690046922657847117e-01
1.247484960172615676e-01,5.381828736035045857e-01
3.114709715880770724e-01,3.746797899885584981e-01
6.413821774168472489e-02,2.184857405080100901e-01
-5.757019779215091088e-02,-6.824137202181068673e-02
4.384918101251790434e-02,-2.689620127878920575e-01
-2.898809295154031011e-03,-2.269619382025742926e-01
2.245070862826057112e-01,-3.635273562973770356e-01
4.260491127264794953e-01,-5.474181173143336521e-01
2.359339801801619563e-01,-6.131694767548321323e-01
6.088919224437923106e-01,-1.057251924697871770e+00
1.094425497669472502e+00,-1.584672387749171296e+00
7.593040136385798000e-01,-1.540031693907698340e+00
1.963643838743248382e-01,-1.194715498019147670e+00
-3.821945500844892846e-02,-8.340055124820062726e-01
-1.912668198880066173e-01,-6.140866133979914210e-01
-8.437830944585295034e-02,-5.761590336931695644e-01
4.842171158834805700e-02,-5.043037773049026118e-01
-1.029504132187904625e-01,-1.019731113148662160e+00
-2.058873959624023253e-01,-1.026828360002095542e+00
-8.028320621942637569e-02,-7.514082034934204124e-01
2.734292990422154679e-02,-6.995931857117444475e-01
-1.316828046727619439e-01,-3.153403781985074095e-01
-3.644014572039122601e-01,2.899773977707832961e-01
-1.180999547726367060e+00,3.430913364218577399e+00
-2.347985617981787954e+00,7.225639394451534692e+00
-3.078583397960767076e+00,9.013248838930159934e+00
-3.112486692984476111e+00,8.984271258254564074e+00
-2.383165824224150686e+00,7.195570421395689031e+00
-9.499920540228233845e-01,4.394912429341373716e+00
-3.705314594387192073e-02,1.907177176377424122e+00
-1.646440542060709500e-01,5.511780873309057860e-01
-1.901051393918480326e-01,1.523603822037523370e-01
-3.421585432675938038e-02,-9.618070966973459035e-02
8.310767065315055602e-02,-3.206699213924791847e-01
2.320731256949132293e-01,-4.825381470847305843e-01
1.759537780895707726e-01,-5.382736990849577019e-01
-1.429515357711443058e-01,-1.141491773319611047e+00
-3.852817090731633365e-01,-1.735776314830006051e+00
-3.606790487674061962e-01,-1.652358151425152633e+00
-5.820934973511813354e-02,-9.931950019882643810e-01
2.131267410548985664e-01,-4.342774362474187688e-01
6.174544004288910759e-02,-4.694952993158095222e-01
-2.484805560733441554e-01,-2.221171638536976745e-01
-4.221684475547731186e-01,2.995443314484366182e-01
-2.189347725385050458e-01,6.474105862446876136e-01
3.361411952237000102e-03,4.609104218996958879e-01
2.567295158263865340e-01,9.711523449267407682e-02
6.279990695315200711e-01,2.208606329954753422e-01
1.526185105207125137e-01,9.997526656842683490e-01
-3.697713486329936017e-01,1.188806369918048222e+00
5.201482486051016429e-02,3.761439061323069710e-01
7.339498986730725871e-01,-3.481947559753483246e-01
1.039229121556753510e+00,-9.173240541279795712e-01
1.039229121556753510e+00,-9.173240541279795712e-01
5.353921405192939575e-01,1.367821944391059696e-01
-3.086283949585790221e-01,1.279795225080674559e+00
-4.936695596879250303e-01,1.006570298532592389e+00
-2.243941146776401441e-01,2.361342629969169216e-01
-3.869004198297940067e-01,6.488002162778594428e-01
-5.444302065728089390e-01,1.265849102344126509e+00
-3.787933829911081518e-01,8.853626456446718196e-01
5.792745839696140930e-02,-2.421088513953948418e-01
6.767482607771266312e-02,-4.063639283735258068e-01
-1.475591632393404851e-01,-2.885208583041966590e-01
-2.281811998269748509e-01,-6.486615878571040383e-01
-4.082037205196288876e-01,-1.370182473152120828e+00
-6.143818060472390208e-01,-1.898853485970419364e+00
-4.385892987947102584e-01,-1.753698047812682903e+00
-1.448300566003780931e-01,-9.600428980725411732e-01
3.342429837922680780e-01,-1.119528423359304331e-01
9.069285314268750176e-01,-6.284409849175212615e-02
1.042278241247364567e+00,-5.359515763125988208e-02
3.828160946269522080e-01,2.957181572604770659e-01
-5.489470667891436229e-01,-3.776117175589638331e-01
-8.648875465410699181e-01,-1.693141571274802581e+00
-9.237104128510298384e-02,-1.506089518071914934e+00
6.945486807078050662e-01,-2.976583016083872435e-01
4.723632007829850488e-01,-8.327902482340206192e-02
1.541904917647134721e-01,-3.411317321936088165e-01
6.956134566392348229e-02,-2.608866503277311732e-01
-5.847365371080322227e-02,-4.817977405226005205e-02
-2.642281951770194537e-01,4.568182854273662996e-01
-5.455644793233636047e-01,5.673385283272347479e-01
-5.833794188349886722e-01,2.569175202014137849e-01
-3.998214464497282794e-01,1.455642050492077233e-02
-1.526692676965459017e-01,5.062573339172119491e-01
-1.057379689035819852e-02,1.285310415127150163e+00
-4.940370039255718715e-01,1.753600431514308555e+00
-8.165419346224052077e-01,1.372853212079210294e+00
-6.863088346442857146e-01,8.266626889107342446e-01
-3.444268064206159052e-01,5.683220591545999900e-01
-1.245537580018584722e-01,3.194814786451034005e-01
-6.644475415828854370e-01,-6.508024182893670240e-01
-1.006656222365247766e+00,-2.837875744187015048e+00
-8.703516366842328766e-01,-3.825693260831466436e+00
-4.161014169727043077e-01,-2.658580741696157990e+00
-1.385532299069028028e-01,-4.555220591393926988e-01
3.692260622131497694e-02,1.462291142045446697e-02
2.482222377255144108e-01,-4.852657126263286713e-01
3.676265193148988558e-02,-1.333300445335299234e-01
-7.408893836897376128e-02,9.760779657652278729e-01
9.638134291582935165e-02,9.509839326324506237e-01
1.623971529115922074e-01,2.533656056367700748e-01
-3.170020344934671580e-02,4.405567828412536580e-01
2.033120251144028279e-01,3.017636783973194348e-01
3.428523267539337893e-01,5.889003597776858168e-02
-4.921038441180633494e-01,-9.510377244533697871e-02
-1.181385329468056744e+00,-3.895518040729124554e-01
-1.038168698431725323e+00,-5.331827283539398721e-01
-1.486337403592440820e+00,-1.120591868261036517e+00
-1.997323815579488127e+00,-1.433995929048405893e+00
-1.697072746620144734e+00,-8.981332751668246184e-01
-6.722580421164724429e-01,-1.317661016676389685e-01
-5.315024418878091517e-01,-3.106053902341904815e-01
-1.034957167312621440e+00,-8.143318908365523301e-01
-1.021022386099085244e+00,-9.862759669298161169e-01
-9.212432642553672890e-01,-8.341951490075136810e-01
-6.324005160596267716e-01,-6.334841327237948905e-01
-2.125485811502611511e-01,-4.962662158859807993e-01
4.910829821876857432e-02,-2.556006892161798438e-01
7.451859710615694743e-01,1.142052437748341948e-01
1.399469530078914392e+00,3.124744769327247318e-01
1.117078375879809071e+00,-6.934794190946812209e-02
7.460116639847305664e-02,-7.144945568925629154e-01
-4.544050604507861579e-01,-8.179221115546005949e-01
-3.661933540061759196e-01,-7.318738906088185781e-01
-5.486839356159193271e-01,-8.770706968217932831e-01
-9.852463658111191291e-01,-7.242934207612357067e-01
-1.155499917345823357e+00,-4.352729884384483050e-01
-8.564284810826071626e-01,-6.757580576428344754e-01
-3.617190804731526543e-01,-1.146778069642101050e+00
-5.605259671811234634e-01,-1.901636047953579656e+00
-7.110218097570657481e-01,-1.750584245167250419e+00
-2.267630555478527821e-01,-3.481621392440525931e-01
1.667905598343119578e-01,7.644596147939921593e-01
3.477328436685057089e-01,1.603464562408822847e+00
4.729807272111821725e-01,1.711985074364890780e+00
4.966191462148805136e-01,8.310797980210498093e-01
1.775836771961954719e-01,2.562934645542300910e-02
-1.707088073798622152e-01,-1.261140039532823998e-01
-3.411537019882010524e-01,-8.561702098992401977e-02
-7.077551112937784383e-01,5.319941024302736743e-01
-1.105722334659823280e+00,3.591296482892433195e-01
-5.815946709199304454e-01,-6.932568711712209231e-01
-3.889761443827697840e-01,-1.012035032336934703e+00
-5.289685485710405866e-01,-8.225115102534797940e-01
-1.895976847223179995e-01,-3.824798662508849811e-01
-1.311369580798001089e-01,-1.494072378390403841e-02
-4.171815373440982966e-01,2.521046734987038018e-01
-9.495189462607975805e-01,9.996006407052250575e-02
-7.194382238939001084e-01,-5.066424915725262768e-01
-1.895976847223179995e-01,-3.824798662508849811e-01
-1.311369580798001089e-01,-1.494072378390403841e-02
-2.708313090494528230e-02,1.050105586993584639e-01
1.026996250746303463e-01,9.556067719778961189e-01
1.913677215098823770e-01,1.538809232700374618e+00
3.633706880306487585e-01,6.922811781430230349e-01
3.710648370847067223e-01,-2.874717250196434648e-02
2.744212405094821894e-01,-9.113057678250678639e-02
1.774189202661030640e-01,-1.458385438762685171e-01
2.200707601525838109e-01,-5.320708466307420004e-01
2.356120490520999533e-01,-7.121759581557137730e-01
1.816017971072239889e-01,-5.651313195628602237e-01
4.405873371304317998e-01,-6.208064776864287149e-01
4.580462849972768424e-01,-4.650482336799341976e-01
3.332220550108086488e-01,-5.064719817530097812e-01
3.332220550108086488e-01,-5.064719817530097812e-01
1.515842026963583611e-01,-1.842080608457793978e-01
1.515842026963583611e-01,-1.842080608457793978e-01
2.357243977199880436e-01,-1.402474066757475324e-01
1.297649374262971333e-01,-2.087563778707742790e-01
1.515842026963583611e-01,-1.842080608457793978e-01
1.873400609608310563e-01,-1.870732248033369184e-05
1.873400609608310563e-01,-1.870732248033369184e-05
1.948975081471815418e-01,-2.378843573520826593e-01
1.276251042477569431e-01,-4.409587960027505082e-01
4.472736159068574913e-01,-2.582621578847182353e-01
3.075799611795573263e-01,2.496503642630425457e-01
7.256118872273573106e-02,2.947461328916471945e-01
7.256118872273573106e-02,2.947461328916471945e-01
-2.219454899426107630e-01,6.368601887372749015e-01
-3.281269470568785040e-01,6.014760866958802632e-01
-1.594584168395927204e-01,1.889172918060885165e-01
3.441848412695610038e-01,-4.906346052189754052e-03
1.722797630716058070e-01,-1.782593641496127077e-02
-2.565208013500855366e-01,-2.720846304325690856e-01
-9.372991948378942006e-02,-2.370608825751688575e-01
3.315761764526720667e-01,-1.646976897936151263e-01
3.143282449986039562e-01,2.384904160934551987e-01
2.739052764383078098e-01,9.052582681055477698e-01
-3.498307422906162811e-01,2.757858441740729805e-01
-4.901253976808019330e-01,-3.478204142970591217e-01
4.031201274378883731e-02,-1.978785955228051785e-02
1.252222948205193032e-01,-7.024512978060135082e-02
8.870918296192016606e-02,-5.352543420409709984e-01
3.165894114221883271e-01,-6.865625152043577373e-01
2.986265492975107017e-01,-4.661447188952765330e-01
1.515842026963583611e-01,-1.842080608457793978e-01
-8.877348106323575128e-02,3.749673883858740675e-01
-8.877348106323575128e-02,3.749673883858740675e-01
1.515842026963580280e-01,-1.842080608457794533e-01
1.515842026963583611e-01,-1.842080608457793978e-01
2.105031930826629927e-01,-3.724454005756368952e-02
2.105031930826629927e-01,-3.724454005756368952e-02
2.903471304461599511e-01,2.675027021601910082e-01
3.392847097227001951e-01,5.954147850624893490e-01
2.312572851967578946e-01,2.581557806388456444e-01
-3.575650330240970343e-01,2.028728235396643764e-01
-3.672469429208899960e-01,7.246902089146077808e-01
-2.489835227404967044e-01,2.503872499940787977e-01
-1.453084108265972063e-01,-7.349284099916868485e-01
-3.613578098725651194e-02,-9.366575049635543770e-01
-7.472178233647495116e-01,-4.894416650818528280e-01
-7.947959021853395756e-01,1.125246007485620689e-02
-2.217873594455271047e-01,1.696742420323472667e-01
-1.978939858089003023e-01,5.424238056740222635e-01
-4.836686769518040024e-02,6.234021209877265157e-01
-7.263491157440860047e-02,1.921125007464434375e+00
2.884699845664288609e-01,2.461216018803092265e+00
5.682598759838499713e-01,6.326481719416482408e-01
4.282182685485679818e-01,-1.015808002866696036e+00
2.963363064650833545e-01,-8.371646268635879462e-01
2.984618082910869274e-01,-6.904564033124854783e-01
3.797445580843696877e-01,-9.602093843349021052e-01
1.549237580922606661e-01,-8.163393746905707182e-01
5.952837004837129714e-02,-5.288161607857968516e-01
5.426244862586108164e-01,-1.615431894211777575e+00
9.975256059263726272e-01,-3.339049774778362956e+00
1.138915968417038460e+00,-4.276455355701066274e+00
9.141081223607492312e-01,-3.621877627370418296e+00
5.636125124996596014e-01,-1.983252105977273194e+00
4.642455319585967466e-01,-6.629412182560124878e-01
5.041724501330177022e-01,-2.434454236637355884e-01
4.089948545412043224e-01,-3.273394462174070707e-01
1.472428196092739061e-01,-1.164884219250926778e+00
-3.885355378546864746e-01,-1.253260224498645048e+00
-9.433732891895314498e-01,-1.345581579635205971e+00
-9.540368824357111643e-01,-1.298201829917923655e+00
-3.637075815017966063e-01,-5.807442815042221929e-01
9.021392411971865810e-01,3.668283574310407524e-01
1.219813227932382782e+00,1.017983267607174058e+00
1.479377503531724258e+00,1.364800107358893788e+00
1.715455099287037655e+00,1.120504704419369668e+00
9.913487601240658087e-01,7.130651523628799004e-02
4.012922115161945968e-01,-8.523995804994504155e-01
3.214820025647928126e-01,-9.551188197564393079e-01
2.746129012921407209e-01,-5.446176695589468597e-01
6.560394102187175336e-02,2.260705109018267822e-01
-2.914272845256614675e-01,7.829383843805270971e-01
-3.336241891212985977e-01,9.426851134006164479e-01
1.085328845258434344e-01,3.004273139958122396e-01
2.112830899853341271e-01,-7.132625609478007167e-01
6.941070160415334367e-02,-1.016824709023690598e+00
1.422710840728534480e-02,-6.251762008809942373e-01
-7.847583623705048361e-02,-7.724301423541305445e-01
-4.650420088206642655e-01,-1.102066312789699021e+00
-3.398989424951855409e-01,-6.033099722514562169e-01
2.545657954052908400e-01,7.460543868941570123e-02
2.879536237850676139e-01,-2.994377212796727195e-01
2.539343763607498916e-01,-5.919540184506546510e-01
2.539343763607498916e-01,-5.919540184506546510e-01
4.200895027364056067e-01,-8.746633042540897796e-01
4.200895027364056067e-01,-8.746633042540897796e-01
2.746129012921407209e-01,-5.446176695589468597e-01
2.808306989999466430e-02,2.519920612465937904e-01
-1.786570180461436175e-01,3.607712405954893731e-01
-1.229167909383051122e-01,-1.233966291988333602e-01
8.730997545747966326e-02,-2.103262122367052789e-01
1.867588008872944905e-01,-1.217974433363995662e-01
1.581761296466930866e-01,-3.285283973914684963e-01
6.211617638989030965e-02,-3.629082448531168459e-01
-7.348095274379060071e-02,-6.261781684919873192e-02
-2.794458360176351741e-01,-1.327981487861489840e-01
-2.712963450700279777e-01,-1.607467180948475294e-01
-3.995579507286881743e-03,-1.942278413535318826e-01
-3.661458327171460692e-01,-7.915917971442846257e-01
1.039290295240123535e-01,-1.085553315839715705e+00
1.255461359392070930e+00,-1.012261854196806032e+00
2.218320795731612893e+00,-7.030525925967825440e-01
2.587685362797851774e+00,-4.874682281308910792e-01
2.217527007699478414e+00,-4.351019254453673546e-01
1.245674445308074807e+00,-4.836509151785757799e-01
2.436721012286708898e-01,-2.097905968916466135e-01
-2.200425111165219272e-01,-5.543469327813795033e-02
-1.856840690527198079e-01,-2.333349344357601440e-01
-2.316679576885794511e-01,-5.971144917963215615e-02
-2.000173513842472550e-01,6.556074517869278639e-02
8.762418880099243079e-02,-6.126844953865631660e-03
8.762418880099243079e-02,-6.126844953865631660e-03
1.514145524952832721e-04,6.893208545818436950e-02
1.387485618631235929e-01,7.389859268201286191e-03
3.832300169752425600e-01,-3.020813092848152470e-01
3.070198375002576308e-01,-3.658975276752164940e-01
1.702334311767281505e-01,-1.379171690653452353e-01
6.086079246974353957e-02,-1.885289193362284510e-01
-1.318271922412192210e-01,-6.049383955626682630e-01
-6.737711477348330702e-02,-6.401975567381398280e-01
5.320859440804980717e-02,-3.888446578134847065e-01
5.214411555488333849e-02,-5.165448157608231172e-01
1.379060852274993643e-01,-4.945934880292089386e-01
4.405873371304317998e-01,-6.208064776864287149e-01
1.379175998978289686e+00,-1.417902908540964901e+00
2.474071648355294251e+00,-2.062004423398231534e+00
2.433327891877655080e+00,-1.953570925024767480e+00
1.581935971459428325e+00,-1.306025328594381696e+00
7.035519838163931672e-01,-4.235735121674070180e-01
7.035519838163931672e-01,-4.235735121674070180e-01
1.087403502790289966e+00,-2.760535806383805912e-01
8.167174357651425520e-01,9.452905815378206955e-02
1.452779711023051701e-01,-7.029843022085772997e-02
-2.845810207025425420e-01,1.856654269561273662e-01
-3.545668546065493948e-02,8.436155819099410147e-01
6.840454142310508079e-01,1.056375518613745346e+00
1.097982132596790450e+00,5.405927064802770188e-01
1.804841302593086949e+00,-7.069870445368556244e-02
2.371975271252690920e+00,-5.358180573178584760e-01
2.597429481197169654e+00,-1.442528046048522583e+00
2.474071648355294251e+00,-2.062004423398231534e+00
1.590310299705058883e+00,-1.721748345475642372e+00
7.297408671556320225e-01,-1.011421184386938732e+00
7.528656264506182749e-01,-3.913910610958832303e-01
1.424000537865028226e+00,-7.232573492926600567e-01
1.675670802209423327e+00,-1.031715299603250813e+00
1.235794474632915252e+00,-7.601549153978701678e-01
3.661027853442679336e-01,-4.692610292242269110e-01
-1.539544867968923036e-01,-1.793552766185277092e-01
2.062160926003471784e-01,-4.512749953041221285e-01
3.369041760616130476e-01,-6.225186729522318441e-01
2.140510865507082028e-01,-4.547486118439914571e-01
1.854241067024732792e-01,-5.477063055032590499e-01
-1.475726174907922017e-01,-2.133054578991758210e-01
-3.212552229409206817e-01,9.964293398228626919e-02
-3.398049618861170296e-01,-1.040812674420893980e-01
-1.343735176243907314e-01,-4.007838846765652274e-01
1.159285737277259976e-01,-3.360424169069826106e-01
1.159285737277259837e-01,-3.360424169069824996e-01
2.544023470508450235e-01,-2.597724620702950293e-01
2.744212405094821894e-01,-9.113057678250678639e-02
5.891373320392350177e-01,1.817584336157078706e-01
5.767780921456948651e-01,-7.555145635249359282e-02
3.360151257328607421e-01,-3.320744516148545489e-01
5.675368442551649295e-01,-6.973298884402744091e-02
1.126373144159646955e+00,1.776275642838169300e-01
1.126373144159646955e+00,1.776275642838169300e-01
3.440026082529249463e-01,-7.388353065392794239e-01
1.471383215660438948e-01,-8.123004717357915627e-01
4.309872706205999382e-01,-2.385569092968732249e-02
8.755601076687964390e-01,-1.731268281800820708e-01
1.184578924001478795e+00,-7.381391385823792284e-01
8.460215696168322808e-01,-9.560437153985535952e-01
-2.276298039738954559e-01,-1.714971760732536099e+00
-1.052579334465502336e+00,-2.568216600513013148e+00
-8.682367601041980354e-01,-2.163895521017326740e+00
1.083347003987379237e-01,-8.817396550681607659e-01
5.393668928615502622e-01,-4.042645110165514477e-02
5.000206861391934821e-01,6.591546414752530447e-02
3.600106279164854151e-01,3.590378101273387079e-01
5.416306773524428575e-01,3.792468252159065245e-01
