1.057150221718054173e+00,1.476828521316299880e-01
3.225186343331623018e-01,1.982519193877636116e-02
-1.762639484813413315e-01,1.506639025667936768e-02
-2.254142944545809157e-01,3.410043389307533812e-01
1.154668221206218037e+00,-1.035391143016737958e+00
1.929892766307388374e+00,-1.905475150097738046e+00
9.824167702045865092e-01,-1.204258747494787007e+00
4.959015841803771779e-02,-4.859670461909287309e-01
-2.826356861497722472e-01,-1.220293699674811633e-01
-6.989617472154873168e-01,2.651495650443806973e-01
-6.598033757792803877e-01,2.681182685555417167e-01
-4.194250608567021699e-01,6.152983380813515507e-02
-4.003814556565609140e-01,1.602825525876605886e-02
-6.989617472154875388e-01,2.651495650443798091e-01
-4.538500139028416869e-01,3.224609299877940205e-01
-9.391932012891761328e-02,-1.333924677747917176e-01
-8.206199137601347116e-02,-4.470509499718594570e-01
-5.754633587071411593e-02,-1.827047780266825572e-01
-1.754227420410624516e-01,1.267162662610090418e-01
-8.052277639833553824e-01,4.281974330067723766e-01
-1.035023233860764114e+00,-3.389406847691777136e-01
-8.756816803125838655e-01,-4.547006980683238608e-01
-8.230054671436557445e-01,2.477054989203428259e-01
-7.239275979764920876e-01,1.998355049840672137e-02
-7.470433279337036492e-01,-5.962027641755627272e-01
-8.756816803125838655e-01,-4.547006980683238608e-01
-6.817353951175123550e-01,3.624940425869078997e-02
2.142598516908318304e-02,-1.384737998524155078e-01
6.347155205340656581e-01,2.231728586476422818e-02
2.720307817683456086e-01,3.137450094040798443e-01
-4.517528739347030919e-01,4.468972050801039431e-01
-2.346186696297066984e-02,4.090645913811534751e-01
3.206793247348106446e-01,6.176504719804093435e-01
2.490815923486692784e-01,6.146744636177711163e-01
-4.751383194344498129e-02,2.643275376677847177e-01
-3.959929051716968851e-01,5.229002918935571342e-02
-5.349436158790478180e-01,5.066895587825973740e-02
-3.853738535327462800e-01,9.061260268276125074e-02
5.293844477204830146e-02,3.276212709474743412e-02
9.024516106692250794e-01,-6.806976084099504165e-01
2.225371986741631503e+00,-1.804208314276432246e+00
4.972663895707587933e+00,-1.979580966801471442e+00
9.107829966862805549e+00,-1.451689112442932084e+00
1.279679838762555377e+01,-6.425131534567521951e-01
1.485241092664142570e+01,3.673135546337258917e-01
1.471318161283906889e+01,1.251083160535094274e+00
1.240793620184470214e+01,1.650187147300097745e+00
8.363225614790005480e+00,1.400916298439115248e+00
3.725378177770589883e+00,6.699593728347161825e-01
1.431711114215844738e+00,-1.551853698670800363e-01
1.657834776342794747e+00,-4.558344093136654784e-01
1.281894502094579780e+00,-1.249693325447875786e-01
5.840647319718454966e-01,3.743244036144556808e-01
7.399646727580765360e-01,3.272674011584283948e-01
3.236169255267256628e-01,-2.132967967188732772e-01
-3.423409755818511702e-01,-1.153505178069637260e+00
4.951082943409464976e-01,-1.849904770820110178e+00
1.929892390614216025e+00,-2.170820375496176347e+00
2.224544801210430300e+00,-2.423377365095715774e+00
1.565226184880812443e+00,-2.033006685045864792e+00
1.007192140274411507e+00,-6.822510024898197356e-01
8.548900604107078083e-01,-1.215231170079295320e-01
1.334203502419750720e+00,-7.249662997768714368e-01
1.994217140899016805e+00,-1.656262456135544348e+00
2.267497370771280885e+00,-1.992895920737933757e+00
2.035354570462505119e+00,-2.483417175986413206e+00
1.216110178608168502e+00,-2.393880787221359441e+00
9.818422887204161960e-04,-1.264430462926883880e+00
-1.557470090652737227e-01,-2.168222223169715968e-01
2.833650383493149238e-01,-2.601595836218339314e-03
-5.169360923203486502e-02,7.110863814581075415e-02
-5.926511357293944293e-01,-6.076731810941784519e-05
-5.644071581507150714e-01,-2.693964635249742612e-01
-7.993408422698260463e-01,-5.553528106606601122e-01
-2.217547106512787636e+00,-1.025631630737288802e+00
-3.692768830455881446e+00,-1.391865560391396306e+00
-3.552475988169668142e+00,-1.019013229204261517e+00
-2.196745884474126775e+00,-1.401293183244304019e-01
-1.079841102766216698e+00,-1.106423655930297290e-01
-8.390852976229641325e-01,-9.403927561586913342e-01
-3.343206017777967110e-01,-1.238172901540163018e+00
1.419289061432381926e-01,-7.527959049404625569e-01
2.905745765015996240e-01,-3.957322441689674619e-01
1.684743375803688381e-01,-4.705498676020251625e-01
2.132431403266378811e-01,-3.704907932319774777e-01
5.180356640545280555e-01,1.352568486926657432e-01
2.519918850620623263e-01,9.185193045539420675e-02
-1.761373607586319556e-01,1.358407898984204665e-01
-2.394817415323374221e-01,2.968402413217582914e-01
-4.393296166091342214e-01,3.302595589615474614e-01
-5.880413462015277037e-01,1.689583951504041448e-01
-5.014671338319431904e-01,-2.208605405331548199e-01
-1.911638955373748949e-01,-4.355419515365490102e-01
3.043961279554273647e-01,-5.991087099596519305e-01
5.549717483556797504e-01,-1.050529520591521715e+00
4.153573697546089072e-01,-1.282395726584374840e+00
1.833638960942024221e-01,-3.226796046097844539e-01
1.456397970275895848e-01,8.311574321919690256e-01
2.245467958132397746e-01,1.013890253384217788e+00
3.790299982208515939e-01,6.110689398837090280e-01
4.082481166240483628e-01,1.710691775241253709e-01
-3.450590460939895188e-01,1.347539770642486312e-01
-4.639450564164233626e-01,-2.081878176603378997e-02
2.327711955279289924e-01,-4.612976946979644999e-01
3.213325016261225353e-01,-8.728333021626293320e-01
-4.429008749602285078e-01,-9.777947342278630050e-01
-1.301277023951754819e+00,-4.904242529485917101e-01
-1.604655180175331042e+00,-7.724449102069434747e-02
-2.617161918990526193e+00,-1.720867793081959085e-01
-4.468817348033080172e+00,-6.502394208351514049e-01
-5.955898415309759386e+00,-1.004844510099598631e+00
-6.463776242613476164e+00,-1.062689334223289261e+00
-5.677660178910000965e+00,-7.282840313484285621e-01
-3.939574717927971204e+00,-5.647654796769428082e-02
-3.197417273767928059e+00,1.050201664668162671e+00
-3.696785834207709787e+00,1.868267999972973659e+00
-3.640969565729929691e+00,1.802857279470402085e+00
-3.138077525516351329e+00,9.806618012299243015e-01
-1.990381863374634630e+00,3.583459848328470615e-02
-5.458500166995029490e-01,-1.996094496191136436e-01
-6.629340408435766552e-01,-6.326736429356906444e-02
-1.254540619813550029e+00,-7.005248492239243667e-03
-1.125913306721734397e+00,1.929286316680797198e-01
-3.025575576339885053e-01,-1.701252429808169653e-01
-1.118296960787999589e-01,-5.730833164575990235e-01
-2.900097739934435204e-01,-5.405217401174361447e-01
-4.841216617314826887e-01,-4.722408968289143472e-01
-6.821374668321377177e-01,-2.859579090990088668e-01
-1.254540619813550029e+00,-7.005248492239243667e-03
-1.303208400305067460e+00,2.026894645846794851e-01
-9.960712524959329794e-01,5.171325102454098488e-01
-9.488346057972857350e-01,1.232825026988757955e+00
-5.505455567726550425e-01,1.555853046844610565e+00
-2.250580466692678749e-01,1.070558182512841849e+00
-9.930229272966728526e-02,5.099631687973877892e-01
-1.637995232276048263e-01,2.156342777293129842e-01
-3.011122155664415767e-01,2.853727430939380083e-01
-3.348621021443629053e-01,4.765714407298002886e-01
-4.517528739347030919e-01,4.468972050801039431e-01
2.950595117889672214e-01,-1.272531572959341717e-01
6.963115782757142158e-01,-7.479956918113257469e-01
4.323648454575678146e-01,-5.255443154047821919e-01
-1.450352130586272069e-02,7.092457613796725180e-02
5.213124037100014263e-02,4.277862801851561175e-02
5.178343596740395682e-01,-5.698708975150834632e-01
6.600220423087601596e-01,-7.471263474824842987e-01
5.344559501718088024e-01,-4.143878113168813493e-01
8.498921294880579236e-02,-1.816504202567023329e-01
-3.026403775179355993e-01,-4.720498220296431846e-02
-4.168025494443923784e-01,1.489227695800079965e-01
-1.123532309511564992e-01,3.904899118899327615e-01
-1.123532309511564992e-01,3.904899118899327615e-01
-2.849517159510158160e-01,3.382165393716723978e-01
-1.761689710842076206e-01,4.695709840868582119e-01
-1.783071466576603425e-01,1.006619868560458819e+00
4.209571832112386502e-01,1.191177631973482587e+00
6.262594463878342621e-01,2.737493403359777533e-01
3.493036478979754667e-01,-1.192552174316888314e+00
1.519172593026089230e-02,-1.645084453755390363e+00
-3.820601173548229812e-01,-1.027448693257197121e+00
-2.675617163611988536e-01,-4.406899424038807078e-01
7.634816820232291634e-02,-8.002969995009503457e-01
1.143579141286074519e+00,-1.014068675444742551e+00
1.993025968187018382e+00,-9.321496004605015484e-01
1.794082223162927869e+00,-6.562292159794387292e-01
1.032935099112362920e+00,-5.328365376623120930e-01
6.963115782757142158e-01,-7.479956918113257469e-01
3.535678308540211034e-01,-1.940297131497350780e-01
1.219407772232008469e+00,5.475927403829305984e-01
2.515486922006304304e+00,6.213111536156559200e-01
2.108102800892574624e+00,4.119757820580874919e-01
7.192235227619689919e-01,9.667349620650513009e-02
1.548335794414859024e-01,-2.833061218282060811e-01
4.409314206119925861e-01,-6.924603169856093920e-01
5.361951871348191734e-01,-8.921039988800797405e-01
5.361951871348191734e-01,-8.921039988800797405e-01
6.563891186403164602e-01,-2.590895942320718959e-01
9.801718180377733125e-01,6.100176951987807961e-01
1.111495394515025659e+00,9.053611594732851042e-01
4.204497290943923216e-01,5.867888442035594787e-01
-3.003903548742574148e-01,2.445999095963793946e-01
-7.757852492688060986e-01,5.513852154519180981e-01
-7.738302730059638534e-01,1.539918942226269905e-01
-1.251352306431811057e+00,-1.446996943985553452e-01
-2.186194419778402676e+00,5.192184892337802227e-01
-1.830760183969923016e+00,1.724388220777737901e+00
-1.026148384139222047e+00,1.772307911147317006e+00
-8.939284655032244675e-01,5.283845784205399854e-01
-1.839169666315064455e-01,-6.465395675704125322e-01
2.077863460817570562e-01,-1.087283466311373736e+00
-1.901132932039608092e-01,-1.258237946163141663e+00
-2.233856153583722859e-01,-3.723043364461338656e-01
3.234665585292600398e-01,5.040465943801775281e-04
4.240351450027803892e-01,-8.339958402046959707e-02
3.058609283881027346e-02,3.035209773511655662e-01
-3.478955465614416709e-01,3.258931028704534216e-01
1.145640284459624458e-01,7.411286426971304131e-01
2.850964773136274721e-01,5.974462413524121995e-01
-2.596586147046695547e-01,-2.802403569626979452e-02
-3.560939203729933666e-01,-3.964360359701971787e-02
-3.686855419342390250e-01,2.325393728186207487e-01
-5.768453358675845744e-01,6.182287529099704526e-02
-4.295129323866542226e-01,4.170551242707832423e-02
-3.451106785541390720e-01,9.415633008934996828e-02
-2.516036109361539652e-01,3.563505133665634261e-01
2.122539457438150368e-01,8.647136781851836318e-01
7.342154637898746783e-01,1.032663807765000552e+00
3.707926777231418392e-01,6.009131440384898326e-01
-5.813927102424555349e-01,-3.119523188349969389e-02
-7.213910666694240970e-01,2.008263583766323190e-02
-3.351896160323874496e-01,2.811605561737225423e-01
-3.169081991926070430e-01,2.413418325953871901e-01
-4.715378726909448814e-01,3.091741372554679956e-01
-5.423749564665668599e-01,2.031949093028314890e-01
-3.638221078511039153e-01,1.030370788498287671e-01
-1.692415999324614895e-01,2.018252941752504415e-01
-7.046751334095019415e-02,2.315350738935395003e-01
-1.009805789831852152e-01,1.001214888473179465e-01
-6.614793578254043460e-01,-3.423747975874335547e-01
-7.993408422698260463e-01,-5.553528106606601122e-01
-2.506491859098490260e-01,-1.756823981609351767e-03
-1.191425517072797757e-01,8.488969026230926973e-01
-2.427125452264315697e-01,1.092930602418189068e+00
-3.521594053116549605e-01,6.085045465149099275e-01
-5.046426063541703533e-01,-1.492426158844967765e-01
-4.994389721873274679e-01,-9.374425837135464956e-01
-3.172888522675307854e-01,-1.291593338241118882e+00
6.565739430828441137e-01,-1.325383067329623854e+00
1.865998817112419328e+00,-9.327196276769433858e-01
2.363222463968001286e+00,-1.975372330299765000e-01
2.608333938333700974e+00,-2.484897706975726372e-02
2.695224727089771122e+00,-2.742032794958949582e-01
1.205260223940700648e+00,-1.545438646965190677e-01
5.660833082802217003e-02,1.160558557749555991e-01
2.924938013197853071e-02,-8.947686207731835040e-02
-4.211279193250760389e-01,2.045194865952508489e-02
-3.286278770681910766e-02,-2.628413285432903423e-01
-1.217820640569649698e-01,-2.656863429604485183e-01
-4.857004830598337652e-01,3.644973844562295895e-01
-2.036043934232008024e-01,-1.762095414705345531e-01
-3.399439110504026695e-02,-8.768533813249126396e-01
-4.738824956315216275e-01,-2.053407448088029053e-01
-8.303295598902497021e-01,6.071616985693735202e-01
-6.526712498321551870e-01,5.419246388469937115e-01
-6.683874981256149317e-01,4.761252312965255640e-01
-8.947703665425028596e-01,6.714656930988354144e-01
-7.757852492688060986e-01,5.513852154519180981e-01
-2.542432955814833972e-01,1.532284757703486489e-01
-2.857987353949063558e-01,4.412393919801488873e-01
-5.223490534995262058e-01,1.243320598407436250e+00
-4.679411238187238253e-01,8.489942579704586878e-01
-4.049334901925842889e-01,5.575856486208310980e-02
-4.548202359164054687e-01,6.400429190930755352e-01
-4.146830957362972470e-01,7.762834282880012315e-01
-2.095907494501220991e-01,1.603387133672872000e+00
-1.008839376077015210e-01,3.146149603494560854e+00
-1.419704305784573184e-01,4.247338103329074244e+00
-1.036544422241366531e-01,4.846909889125133652e+00
-1.036544422241366531e-01,4.846909889125133652e+00
-3.846890005087779119e-01,3.331335507268607277e+00
-3.846890005087779119e-01,3.331335507268607277e+00
-3.864241738069494891e-01,3.521420382386248882e+00
-7.903223310463508566e-01,1.742442726011353304e+00
-1.002961076743414504e+00,4.863709211411138544e-01
-1.002351391998923091e+00,5.730632140479160475e-01
-1.131352122029802620e+00,6.024045981218437706e-01
-7.844651967925866387e-01,7.434187347593987916e-01
-4.146830957362972470e-01,7.762834282880012315e-01
-6.322666132047249921e-01,1.157660034493865897e+00
-1.034392328106968462e+00,1.647477588174526275e+00
-1.158645231439064727e+00,1.210054511471598815e+00
-9.581705429539064678e-01,4.987637459578508209e-02
-5.297770037526262632e-01,-8.466807196940363545e-01
-1.808424069852667682e-01,-1.056811009948471325e+00
-3.034134680781932492e-01,-5.083425670475252289e-01
-4.211279193250760389e-01,2.045194865952427998e-02
-4.555215559427037708e-01,8.057413114403869647e-01
-4.241666536919129760e-01,1.209004161840677050e+00
-2.944205886053206656e-01,7.948894706519937792e-01
-3.173029359140094874e-02,4.253651860884823943e-01
9.517316106878552506e-02,5.627925481243606365e-01
-9.166789105062238263e-02,5.727867506118672347e-01
-3.994521029322881667e-01,-1.701419808228835095e-01
-7.795568783614694741e-01,-1.065839111485953117e+00
-1.025512495340172636e+00,-1.285595806448660339e+00
-1.025512495340172636e+00,-1.285595806448660339e+00
-8.296904053914354593e-01,-1.341462736832837788e+00
-4.620517081476959720e-01,-5.778871755062721105e-01
-5.122551610890879736e-01,7.083086111140244299e-03
-2.988034235024769059e-01,-1.455881978653772793e-02
5.042740248623394511e-02,1.444014279495186258e-02
6.729888073231851675e-02,-4.441673144736529300e-01
-3.340900909303104460e-02,-7.660924124597048301e-01
-4.597922723902746200e-02,-1.983508491418092268e+00
-4.842248958409892112e-01,-3.638510508389122045e+00
-1.057370196206617541e+00,-3.360037630112135520e+00
-9.251738741415379552e-01,-1.467298134349487082e+00
-5.539328838663736265e-01,1.922924738130440125e-01
-4.354036802894104552e-01,4.134836608721159656e-01
9.058230855749614674e-02,1.244048985306928312e+00
4.383673349799087071e-01,2.429253702622831135e+00
2.905029227798672786e-01,2.838411508065924682e+00
-1.624355620836572256e-01,1.758568397346793377e+00
-4.146830957362972470e-01,7.762834282880012315e-01
-3.613786737469320554e-01,2.616440833871070959e-01
-4.275757966395011267e-01,-6.226969883396556160e-02
-4.395854483500799548e-01,-1.958561207464698528e-01
-4.211279193250760389e-01,2.045194865952508489e-02
-5.456795781563449355e-01,1.298269402985527510e+00
-5.998465535299007945e-01,2.670133790394303208e+00
-4.474571813615554339e-01,3.149726790628295081e+00
-2.534773473304274272e-01,2.192575160224706110e+00
-3.199597092721019331e-01,9.210770661944052140e-01
-4.864380317845018453e-01,2.665328083975974094e-01
-4.632676797584982520e-01,2.440862691603100099e-01
-5.649927648948607217e-01,-2.309236119282606636e-01
-9.747134094426769257e-01,-9.140192289352599975e-01
-1.074514550149887393e+00,-9.271386527328288052e-01
-6.966438630587556968e-01,-2.756952429157470963e-01
1.834404576661098907e-01,-1.766820694487418741e-01
1.834404576661098907e-01,-1.766820694487418741e-01
-2.387054364809848006e-01,-2.542964435223412090e-01
-2.348673261780602484e-01,-4.090685444406043647e-01
-4.211279193250760389e-01,2.045194865952508489e-02
-4.931825468847342298e-01,2.999605387565282277e-01
-5.925144809784852473e-01,-2.042616397987371546e-01
-4.416018943624330229e-01,-4.068313179802628965e-01
2.314386487872088505e-01,-3.839159489572923634e-01
1.664308756356945029e-01,-1.845071751884081734e-01
-2.647442315243956901e-01,7.782423964907788554e-04
-1.416594336020191303e-01,-3.184217671232794644e-01
-1.335213510482227972e-01,-2.347149019308633344e-01
-3.006283932333815301e-01,7.188479884487160299e-02
-7.386534726052512712e-01,-4.398724046952602607e-02
-9.255221085311912121e-01,-4.997518480230142557e-01
-3.239084959161884769e-01,-7.301430320898889548e-01
-2.703168520690580126e-02,-4.119638516196680866e-01
-3.621463729353550098e-01,1.709755271782646691e-01
2.512323110481986532e-01,-3.432292166579586912e-01
7.867398991325772473e-01,-1.048112467188734076e+00
6.017911908189885750e-01,-7.408717484255327168e-01
6.450276885537944427e-01,-3.533364020875369715e-01
7.721629519924053664e-01,-7.128753223407914286e-01
5.815655158161670002e-01,-9.780745360204857741e-01
7.867398991325772473e-01,-1.048112467188734742e+00
1.205832660006507018e+00,-9.122839849369239751e-01
1.572109726062183466e+00,-3.819982023370109836e-01
1.593057473452578643e+00,-1.759840186356394220e-02
1.191485725180149169e+00,-1.509775940310918996e-01
3.697552810055669270e-01,-5.020569963577946604e-01
-1.160560642014926702e-01,-8.877419367828974783e-01
-6.985577464567456485e-02,-1.090122726926373353e+00
2.196098779805498724e-01,-6.826905773834800462e-01
2.533960809030860739e-01,-2.983540184542793905e-01
6.718392813704354705e-01,-4.175213926141924103e-01
4.583326644523983973e-01,-2.044027933968496635e-02
-1.698776431287924993e+00,7.976616599892968340e-01
-2.495163046689225173e+00,4.575676566053003547e-01
-1.024777717162796531e+00,-4.971021504177654537e-01
7.721629519924053664e-01,-7.128753223407914286e-01
2.185049519642528804e+00,7.323190063376676384e-02
3.697329905638953029e+00,9.737198984760209175e-01
3.900708108399120189e+00,1.829780093339886449e+00
2.908892154116412776e+00,2.498189806247856026e+00
1.412290315635474469e+00,3.007664541249615020e+00
4.199220519432591003e-01,3.141055352552606372e+00
1.454424486318497689e-01,2.524532438095707487e+00
-7.986565411820624460e-02,1.359299929862271661e+00
1.178163083241521303e+00,2.725769623330575042e-01
2.046526043110704407e+00,-1.014223247389816063e-01
1.258249372687668011e+00,-3.670238473509402910e-01
7.465972456466830609e-01,-9.002028994205441004e-01
6.920789005143966888e-01,-1.164266405572753404e+00
2.520293489037522261e-01,-5.211549885722459585e-01
1.731621764284934639e-01,-3.582341997279865353e-01
2.029806015327137170e-01,-2.250513123198940590e-01
-2.846318613277309256e-02,-1.717494375427428277e-01
-1.586161054781964619e-01,-2.946564587942167579e-01
-2.962117783981568775e-01,7.809231789807871693e-02
-3.702189337477653774e-01,3.478979945576888277e-01
-3.850893791680763956e-01,3.789969618995153167e-01
-9.236719591039952437e-01,-1.181878440097750282e-01
-1.169110802011504413e+00,-4.167723987662634300e-01
-1.222641494594757683e+00,5.124153515075751536e-02
-1.541057980125656091e+00,6.203692031442137322e-01
-1.368038617303223292e+00,8.908624105072564525e-01
-8.032512079305934583e-01,6.497651758794352750e-01
-2.518653086524612061e-01,1.776256526241987710e-01
-2.518653086524612061e-01,1.776256526241987710e-01
-8.998365660745254180e-02,2.146365385584888541e-01
6.838226211229116169e-02,3.001746811267887449e-01
5.356507946655038321e-02,1.828937775738187499e-01
1.370578159566326060e-01,-5.433447917763376545e-01
-4.392505467027040811e-01,-1.178113805535395242e+00
-1.147773065819336358e+00,-9.707171700629553257e-01
-1.411608087504749642e+00,-5.200423585441225072e-01
-7.571637215021269629e-01,-5.648437149941210045e-01
-1.586161054781964619e-01,-2.946564587942167579e-01
-2.962117783981568775e-01,7.809231789807871693e-02
-3.702189337477653774e-01,3.478979945576888277e-01
-3.850893791680763956e-01,3.789969618995153167e-01
-4.911099226385978733e-01,3.356636719115653200e-01
-1.046189739839904265e+00,3.493352998788754049e-01
-1.541057980125656091e+00,6.203692031442137322e-01
-1.368038617303223292e+00,8.908624105072564525e-01
-7.953093924376508639e-01,7.654621233251663881e-01
-5.364639107406763419e-01,4.712825922233846443e-01
-7.324797356150434258e-01,3.773065107213998681e-01
-4.413995850731762816e-01,-1.674310414376757317e-01
7.838512031745080710e-01,-4.998600212666044484e-01
1.814733657757895191e+00,-3.107026518541891602e-01
1.777545327586431245e+00,-2.914858718896144729e-02
1.559707760491510165e+00,4.152551819323304638e-01
1.234459616476735411e+00,5.466576975212008582e-01
5.831788163998919972e-01,-2.587635305046024486e-02
5.467810715360259533e-01,-1.018482540675295311e+00
4.680301847166006279e-01,-1.134731614118673404e+00
7.712496067380760767e-01,-7.997981939514858807e-01
1.044241466459313594e+00,-1.201748877829976969e+00
4.857459798114859839e-01,-1.411832304439900820e+00
-4.134525344052215612e-01,-1.259884804871860275e+00
3.605278205837543770e-01,-1.878418942669285885e+00
1.537135646710809267e+00,-2.711351024884097072e+00
1.293989666668106997e+00,-2.454245507713531893e+00
7.073859683908058082e-01,-1.431297359952177883e+00
6.961972203540331416e-02,-2.386666145157102792e-01
-5.364639107406763419e-01,4.712825922233846443e-01
-7.324797356150434258e-01,3.773065107213998681e-01
-8.710351460003308288e-01,2.576147096015834470e-01
-8.710351460003308288e-01,2.576147096015834470e-01
-7.818658393829559516e-01,3.679857095979776616e-01
-7.818658393829559516e-01,3.679857095979776616e-01
-4.546133744388576314e-01,4.434661447748743934e-01
6.754780661327339231e-02,1.016810183614851176e-01
4.313534743661332493e-01,1.709002499709836448e-02
5.831788163998919972e-01,-2.587635305046024486e-02
5.806386140779541405e-01,8.496855194807323430e-02
1.277388816538191696e+00,1.036504022613878417e+00
2.133285370371057699e+00,1.691284393773109684e+00
2.014189718338480262e+00,1.703867961276469556e+00
8.535636814067225631e-01,9.542637985382803612e-01
-3.209891877077183930e-01,2.708962706228924544e-01
-6.989617472154875388e-01,2.651495650443798091e-01
-4.928371487680925367e-01,4.850667234609240541e-01
1.465178966477365952e-01,-8.615880249093454957e-02
5.986780768301759315e-01,-7.547536601565481007e-01
4.690418537662040532e-01,-5.445685213159197069e-01
4.006856009820176923e-02,-1.643001240300236421e-01
-3.624963110546686185e-01,9.388864116731027165e-02
-6.989617472154875388e-01,2.651495650443798091e-01
1.512074712114081995e-02,5.247733903989367787e-01
7.932689944049534647e-01,1.014171289957664923e+00
8.310614289570624758e-01,9.253956342769569243e-01
5.254241116737849993e-01,6.258944658456564447e-01
4.719668828538108873e-01,9.046927117104306415e-01
5.497653413714560511e-01,8.008593645049933984e-01
5.915088023630930003e-01,6.889662486823417975e-01
4.826772958333943597e-01,5.029931492538113336e-01
2.427821469313294067e-01,-2.972905111400069855e-01
3.812373862375545985e-01,-3.943957342338440530e-01
6.222211360224516596e-01,3.803183594283772728e-01
5.040290560745719350e-01,4.978016720415300855e-01
1.339436480314694089e-01,1.236109803132027368e-01
-4.841595493690806773e-01,-3.022174590788362369e-01
-1.967971445004797204e-02,-1.421152810565940068e-02
3.461473224133351095e-02,-1.956432062790693371e-01
-4.746948979041271666e-01,-9.068251577099509797e-01
-5.315235971626588451e-01,-9.549898674359121875e-01
-5.535795630185723626e-01,-3.474403598471323962e-01
-3.532023798885781107e-01,-9.747683907587595398e-02
-4.394644278889943689e-01,-5.807680904675667499e-02
3.273556482406373980e-01,2.395057490488052276e-01
9.592329047050647262e-01,8.542148809304862811e-02
5.554939576310128357e-01,7.957508730258508467e-03
1.602601708177991968e-01,1.485424708023977414e-01
5.613136894443708502e-02,3.016337313009850307e-01
3.533556252621831706e-01,3.151197267675022728e-01
6.609083992183684142e-01,5.915504379144426172e-01
6.566691975560670080e-01,9.333545574464122696e-01
5.581240760553735081e-01,1.054391085469808198e+00
5.497653413714560511e-01,8.008593645049933984e-01
6.291900583338922992e-01,4.813404992093403001e-01
6.153734391773784118e-01,3.798303228814682297e-01
6.114811933887616124e-01,4.736371944054670324e-01
1.210773269102307204e+00,1.456783423380705045e-01
2.007789784867620053e+00,-3.244696695271940268e-01
2.023074453560842478e+00,-3.017256379988060289e-01
1.254711652235042774e+00,6.855164499826647828e-02
2.572843785806757655e-01,3.295241605358089076e-01
-2.488687459526849888e-01,2.564660067108528452e-01
-6.989617472154875388e-01,2.651495650443798091e-01
3.572334884691101276e-01,2.054185675808261724e+00
2.166880215112151564e+00,5.016968378076647639e+00
3.764504365743325476e+00,7.987997302210327888e+00
4.302758784311519591e+00,9.500362376102044593e+00
3.745344341846122305e+00,9.257267283033796090e+00
2.420642269357605070e+00,7.379789348006788430e+00
9.146809269529412312e-01,4.417825200342679004e+00
-1.280092497367293636e-01,1.656659563640748400e+00
-6.989617472154875388e-01,2.651495650443798091e-01
-4.048707196079553983e-01,2.782487058884112185e-01
1.803735140195538711e-01,2.986476594110881733e-01
6.153734391773787449e-01,3.798303228814655097e-01
6.114811933887616124e-01,4.736371944054670324e-01
4.411921871484456026e-01,4.072544122984459447e-01
-2.569091953800630712e-01,5.937321748990020964e-01
-8.149677762570555206e-01,7.367033560029246919e-01
-5.004792987676139754e-02,6.419771815657910885e-01
2.514937423587131349e-01,2.213688716070378315e-01
4.973367317329553394e-01,3.230469004749734196e-01
1.207073133014657795e+00,8.530920488759564657e-01
1.916000222791789165e+00,1.226049742008708865e+00
2.051393539991351656e+00,9.756798713650605137e-01
1.234459616476734523e+00,5.466576975212016354e-01
2.324937722086375946e-02,2.877058594107771983e-01
-6.989617472154875388e-01,2.651495650443798091e-01
-1.360341301321824903e-01,8.503941478746529503e-02
4.925567580370278642e-01,3.103720623426135285e-03
5.796956958565734341e-01,3.019610474166830594e-01
2.761448363240593395e-01,3.622118882094626513e-01
-2.151182880480602966e-01,-8.679187821301864725e-02
-6.625660097076464528e-01,-4.979440456708166818e-01
-3.403059620813653763e-01,-1.248326940403709923e-01
-5.324429089793027980e-01,2.826906276563345699e-01
-1.269238598974435694e+00,-6.076667877052575190e-02
-1.169110802011504413e+00,-4.167723987662634300e-01
-5.489471800320108175e-01,-1.568197824070899915e-01
-5.489471800320108175e-01,-1.568197824070899915e-01
-7.866594747813098198e-01,-2.645562733358322594e-02
-2.621774875431570617e-01,1.459652529841957702e-01
-9.690531116616925289e-02,-3.003324448561526250e-01
6.863316285349804757e-02,-9.940985618831268411e-01
4.718776821706988645e-01,-9.789890891987803601e-01
5.978623477540030429e-01,-8.701036164511647408e-01
5.869628473705474914e-01,-8.164172011320131039e-01
4.439232132352006754e-01,-3.612003547980021101e-01
4.347035851714269872e-01,2.623048742803872346e-01
3.286905071371807319e-01,3.565631974938553439e-01
2.105588185178324245e-01,4.097685223488368722e-01
5.295583658346890710e-01,7.347101225148687798e-01
3.080992169465041619e-01,1.081821669288021592e+00
4.937187567094012963e-01,1.395218596139072176e+00
7.093764712209322809e-01,1.082267732757943524e+00
7.271448171480564548e-01,1.492997230062389047e+00
1.101892581233087753e+00,2.155622491787448247e+00
1.073623708664835030e+00,1.618618458922951753e+00
7.997884459825894687e-01,9.531092701973360726e-02
5.978623477540030429e-01,-8.701036164511647408e-01
2.287084332958699562e-01,-9.377707278891556086e-01
4.920005333604550099e-03,-9.379136804243751735e-01
5.380344837410441228e-01,-1.123324622507640758e+00
9.320391695337122417e-01,-9.675589104914419369e-01
6.830837644743348314e-01,-5.244899724123027740e-01
5.523434487613105848e-01,1.396891263015320184e-01
5.693655713979226540e-01,4.346966548889226734e-01
1.260196566358763870e-01,1.489482230232135884e-01
-1.214119486829480787e-01,-5.331879414398376094e-01
1.705605410418940121e-02,-4.187796549302154059e-01
3.247315146628246274e-01,3.241989753313380684e-01
8.347318618740868779e-01,8.383407502561791569e-01
1.167897147355054344e+00,9.882841852034093266e-01
1.035269023523332610e+00,8.699197960286425557e-01
6.631748368317703646e-01,3.277920879454436498e-02
4.575380047811248851e-01,-4.402761156236978946e-01
7.199300026649982365e-02,-4.301657547642286916e-01
-4.413995850731762816e-01,-1.674310414376757317e-01
-9.293188193654601248e-01,2.357648108323289957e-02
-8.406706247356046102e-01,-2.016106570408300602e-01
-7.404176247954143975e-01,3.174643595762716708e-01
-5.775624491957689344e-01,8.281803291756851815e-01
9.886990921717796199e-02,8.521915327086786451e-01
5.295583658346890710e-01,7.347101225148687798e-01
-3.456762905037157052e-02,2.152250066896246039e-01
-5.513129679177954934e-01,-2.155600717129760868e-01
-7.888438552935523873e-01,-2.012737307449327384e-01
-1.932250455026331970e+00,6.153501388397100702e-02
-2.079795926052524724e+00,1.147716609703645502e-01
-9.759607741468626640e-01,-2.147222119203935631e-01
-2.963410041056900313e-01,1.407956674887552717e-01
2.377355618185008068e-01,6.430357054741684397e-01
5.318801848887436678e-01,1.251532155147157266e-02
5.724521790783418940e-01,-5.653924093785698268e-01
5.873159915323139524e-01,-1.966666183352353825e-01
1.507776011558140672e-01,2.335424187284275421e-01
-4.517528739347030919e-01,4.468972050801039431e-01
-6.271127299406833999e-02,-2.339252725670193100e-01
2.078321558156792648e-01,-9.326589965927890580e-01
-3.158062741536994400e-01,-6.170648614756399919e-01
-5.759734200887504096e-01,-1.150604889742159603e-01
-7.729565162147565838e-01,-1.453119989063244299e-01
-9.460632181021565446e-01,-8.225684578668267244e-02
-7.050339534405107855e-01,1.244815606422106369e-01
-3.522282692792190750e-01,1.553224696406546868e-01
-5.158214575974774396e-01,1.825020346880970035e-01
-5.811709613839244337e-01,4.033847471036650784e-04
-3.321692735779728789e-01,-4.764373852216588490e-01
-3.049396655805542977e-01,-2.782778745803193288e-01
-4.022165822665590973e-01,7.789156841713786028e-02
-1.937804229036776960e-02,-2.921688586605823423e-01
5.361951871348191734e-01,-8.921039988800797405e-01
4.381884848375514063e-01,-3.865569322064231206e-01
5.543088178156930362e-02,-6.063790048278199230e-01
-6.424113347426177456e-02,-1.201232238772675709e+00
2.783515449118597121e-02,-8.945787760337736705e-01
-2.578667373344383992e-02,-7.568530177349732657e-01
-4.940078368940875042e-01,-7.736767216892554977e-01
-1.299741970996083573e+00,-1.186726922640087611e+00
-1.745948608744007924e+00,-1.561299475947880433e+00
-1.479687520222647157e+00,-1.311182007470611977e+00
-7.203502784129282022e-01,-6.249019755193482295e-01
-1.352813580830856954e-01,-1.058966804154625047e-01
-3.761452371018709773e-01,-2.189222411993003992e-01
-1.156978630434473028e-02,-7.398535743084255767e-01
9.264973398194460419e-01,-1.220080274138498622e+00
1.316506231942643712e+00,-2.092371195813410356e+00
6.585180374436763184e-01,-2.898909549687723075e+00
2.434039619380744604e-02,-2.585742216319551368e+00
-1.463338833448604714e-01,-1.059867101196824590e+00
-3.746177107504035653e-01,1.628508025042347818e-01
-3.766373201782567404e-01,3.887466930560324885e-01
9.604766829251018545e-02,-1.272682317030760790e-01
5.096577063270536084e-02,-3.121473441650388647e-01
-4.246873354364358311e-01,1.420302188362820295e-01
-4.246873354364358311e-01,1.420302188362820295e-01
-4.033227915762189753e-01,4.767131447890013973e-01
-4.146830957362972470e-01,7.762834282880012315e-01
-2.116841736614721303e-01,7.894868729644786143e-01
-2.086642967408404714e-01,2.824061581988897562e-01
-5.540991804570366552e-01,-4.308551125753443123e-01
-7.788461668758615009e-01,-1.674223011732243471e-01
-4.555000753366023614e-01,3.423388020474604221e-01
2.377355618185008068e-01,6.430357054741684397e-01
4.382526522915438094e-01,5.946635975349998660e-01
2.820104805481615578e-04,2.869846424506713456e-01
-3.270605004422290074e-01,-6.723675209215630444e-01
1.021317156683726052e-01,-1.388704232228072932e+00
7.128793563247752818e-01,-1.694218050246077523e+00
8.922883799624307111e-01,-2.162527172057016944e+00
5.641707672960286635e-01,-2.752365121263722347e+00
1.401315456171816631e-01,-3.228198771186068239e+00
-2.245856927636221377e-03,-3.315668570102199730e+00
2.434039619380744604e-02,-2.585742216319551368e+00
3.233338351611811379e-01,-1.319565672733982620e+00
1.565186343658583557e+00,-9.452440694083494854e-01
2.649058265765296127e+00,-1.423120435503861803e+00
2.593577310840176953e+00,-1.461185303190250195e+00
1.452562221109159335e+00,-9.112682432769314556e-01
2.193243057602174417e-01,-1.761528607396137536e-01
-8.220457523794031385e-01,4.859221963120353149e-01
-1.264500145482738258e+00,6.017766113193227795e-02
-1.411608087504749642e+00,-5.200423585441225072e-01
-1.159119418179684002e+00,-5.638823605934781824e-01
-9.103551789998329813e-01,-5.299201047704265033e-01
-9.135969664024782277e-01,-4.593289790189671318e-01
-1.085786324546563986e+00,-5.335352503121246759e-01
-9.963629411685104298e-01,-5.397069003461303360e-01
-6.721158650225420583e-01,-2.813412472255114039e-01
-5.277791631915687010e-01,-5.187488232388767218e-01
-4.701068745502960944e-01,-3.095720405276295439e-01
-3.141229349210634125e-01,2.977263056962942134e-01
-4.222864363505057783e-01,6.931804938819476070e-02
-5.003371777083328586e-01,1.082960915459696832e-01
-5.563490863170412748e-01,3.919975744070496732e-02
-6.937313753656635384e-01,-2.590975654649370075e-01
-8.973748716851661644e-01,-3.734509720401081867e-01
-9.255221085311912121e-01,-4.997518480230142557e-01
-7.751003813053555236e-01,-6.764155569356585795e-01
-5.509344558242597056e-01,-7.211060658022151459e-01
2.622685911963607355e-02,-8.669994712881110566e-01
4.755260720367567862e-01,-1.788534766433035050e-02
3.723900032942618621e-01,7.663262153851508884e-01
8.651976862741651564e-01,4.874011469768804727e-01
1.784599157355118537e+00,-8.986534020712536042e-02
2.346036118089875888e+00,-4.245690975421257951e-01
2.032375184649479305e+00,-2.096739589359278289e-01
9.412576967081250912e-01,3.431563122494476481e-01
5.111407777662917845e-02,1.335626355149496902e+00
-1.770202051267042165e-01,1.596752810307084713e+00
-6.147888738953752874e-01,4.819130281558819950e-01
-9.012375153122309523e-01,-6.817681392628850423e-01
-7.528018082877949713e-01,-3.786153136184113310e-01
-2.505796673518150830e-01,5.023810440609109695e-02
1.026466130758816764e+00,3.185976326054087426e-01
1.749636344702712121e+00,2.904374361064359089e-01
1.004514718415482344e+00,-3.906372531212201626e-01
1.576160474777350273e-01,-8.846298691603943221e-01
3.034380511267569247e-01,-7.596950577489788303e-01
9.321361405693171509e-01,-6.060792325123980362e-01
9.032626608991389805e-01,-1.021008890950074049e-01
1.523743416289045916e-01,4.361388833062447290e-01
-1.672331706661694672e-01,5.716645411878819028e-01
-3.162793180090289202e-01,2.474931848831581904e-01
-5.455176380681131532e-01,9.412502910711626480e-01
-5.900215766921803606e-01,1.233905012582985128e+00
-5.909602374270334080e-01,5.779111834855477081e-01
-6.720877854116292793e-01,4.612465018740082023e-02
-8.127322098373677139e-01,-3.683805729993809841e-01
-8.859490158022734763e-01,-5.346007911305212801e-01
-9.012375153122309523e-01,-6.817681392628850423e-01
-4.782844453424995868e-01,-8.743471422175267405e-01
1.576160474777350273e-01,-8.846298691603943221e-01
2.049272763372617656e-01,-4.810208208393345619e-01
-2.862318661818642404e-02,-2.446933012503802185e-01
-4.074900220218661273e-01,-5.710370440314251894e-01
-6.059330188789725513e-01,-1.107348352341296360e+00
-1.063648321232022742e-01,-1.440619828567140770e+00
8.773957472138237401e-01,-1.430151555157276988e+00
5.813787081165415760e-01,-7.459961721748697983e-01
-5.455176380681131532e-01,9.412502910711626480e-01
-5.755958071936965181e-01,1.054952875333707629e+00
-3.651962091219432271e-01,2.885575694888108944e-01
-3.831949277920739805e-01,-2.247656793794603480e-01
-6.347342017651363966e-01,-3.162461782620562545e-01
-8.086632190385760477e-02,-2.462136407438981767e-01
1.167614005059895099e+00,-1.976672740355378544e+00
2.244029278382257075e+00,-4.306531437102148807e+00
2.649333410573552428e+00,-5.595610762327174470e+00
2.351586596686160657e+00,-5.208363876954829053e+00
1.843460537360168017e+00,-3.684666137111115347e+00
1.565226184880812443e+00,-2.033006685045864792e+00
1.067532362640859045e+00,-6.992318610913549337e-01
2.925018594492417301e-01,9.975169509042118576e-02
-3.054751400730042477e-01,4.404655372117246559e-01
-5.722028716150319161e-01,-8.094701545797185205e-02
-9.012375153122309523e-01,-6.817681392628850423e-01
-8.904364063723375633e-01,-6.402051203472166607e-01
-5.254175146265614993e-01,-1.499893338328592007e-01
9.041837500831245711e-01,1.313760441606619533e+00
3.090056631922474484e+00,3.843239137563061458e+00
4.896522448189255527e+00,6.172787828022598511e+00
4.814321840316350354e+00,6.358977497622321451e+00
2.867638600436351659e+00,4.470612844814396247e+00
7.807530073470700938e-01,1.689182954180815210e+00
-1.405423926386190903e-01,5.817080250928970964e-01
1.558137609644677513e-01,6.340645581238110173e-01
6.648585568023804848e-01,2.440308488217548810e-01
3.040401386798644023e-01,1.704064182795767823e-01
-1.008653402036211733e-01,2.571138106092720199e-01
-5.001304796179382173e-01,-1.067052946410119857e-01
-8.677062649505197234e-01,-5.003920129605677891e-01
-7.242784164051677687e-01,-3.346949162673211187e-01
-7.809618898813124044e-02,-4.037294744420820147e-01
2.521285465605753173e-01,-5.752962397886940416e-01
-1.689988299363260867e-03,-3.257881455393745740e-01
-1.568531030800791592e-01,-4.452547573455200580e-01
1.319663673383144609e-01,-8.725829868378135457e-01
4.570319665358629213e-01,-9.888981755741556023e-01
4.956058575398936128e-01,-1.577497556808543200e+00
3.790935390222942569e-01,-2.260381187233521327e+00
4.585964895149353127e-01,-2.109619335206303070e+00
4.562952699174497861e-01,-1.342001505386739568e+00
2.057525741668327079e-01,-5.788133384912662605e-01
3.540937838057595100e-01,-1.399619045028336617e-01
5.344314307808016862e-01,-4.663301273225162191e-01
5.361951871348191734e-01,-8.921039988800797405e-01
6.699487879800845036e-01,-7.799605102757627417e-01
6.577999113596577629e-01,-4.115405164143346450e-01
7.499263226255528103e-01,-3.219906862659259184e-01
7.620730432679930777e-01,-6.298452007670234387e-01
4.920974302440322412e-01,-6.689888561442213222e-01
2.404357791331914740e-01,-2.936353693329513820e-02
-1.138483400749096042e+00,3.738288875131539069e+00
-2.954869616617886496e+00,8.359886945015253090e+00
-3.878450162254425848e+00,1.063491376996856097e+01
-3.880376993660898943e+00,1.068504600379680625e+01
-2.956869018924547898e+00,8.411907326050059197e+00
-1.172989454314334212e+00,4.682167264174498023e+00
-1.075092910310456763e-02,1.739075484576791508e+00
-3.120570278889308047e-01,1.292556879458243158e-01
-9.342321441846604957e-01,-7.420638058308929308e-01
-1.111870551507339933e+00,-1.185766602702580830e+00
-5.708826716444459493e-01,-1.011650794992631219e+00
1.525018744436133777e-01,-9.052300565570686741e-01
4.579754813612421649e-01,-1.007568272332453052e+00
4.571262699676948427e-01,-1.191464819719084467e+00
1.523984881846389694e-01,-1.344784274010763836e+00
-1.066650671869840972e-01,-9.186499477515308598e-01
-2.568243139647771178e-01,-1.068656027314112550e-01
2.382427603755420120e-01,4.201516343101344697e-01
3.091474788221437175e-01,6.142517723130810209e-02
-1.508208757591156801e-01,-2.878679282051312821e-02
-1.198878548022797308e-01,3.032597157562055834e-01
5.842172668253298867e-02,5.818891168815900627e-01
-7.109015882803851882e-01,1.083131824832191809e-01
-1.457002843259854741e+00,-1.732077554862984925e-01
-1.244508908466798180e+00,1.993979040910234535e-01
-9.294686736623047896e-01,3.183779253373025808e-01
-4.059718238324542261e-01,9.091880613098742014e-02
-3.845434727721100399e-01,-2.463743229466568430e-01
1.778981786493435413e-01,-4.127296414966949989e-01
1.044228028484312398e+00,-4.790239516753175830e-01
1.044228028484312398e+00,-4.790239516753175830e-01
4.762981304968751384e-01,1.691238883419395322e-01
-3.118120511544013596e-01,5.590333219721060898e-01
-3.131524464160281296e-01,1.905661703476294877e-01
6.322553586248871871e-02,5.428575597654541202e-02
-1.468391756264944004e-01,1.317688999753606760e-01
-5.220600353143844963e-01,2.357045846765407904e-01
-4.546133744388576314e-01,4.434661447748743934e-01
-9.442884121676699272e-02,-1.162494905433310716e-01
-3.005239291429726567e-01,-6.713126408983907112e-01
-6.828899702095130309e-01,-6.190763275919951569e-01
-5.992019465093991748e-01,-9.688633665015176089e-01
-2.028891165165165600e-01,-1.874167233248924758e+00
6.044530336876549614e-02,-2.724551117959804092e+00
3.278528542441617732e-01,-2.644012863869556806e+00
4.009211290983670795e-01,-1.632921695083098701e+00
-2.150976534412698260e-01,1.617706888301951862e-01
-1.098835345123435614e+00,1.273734809783258815e+00
-1.333182349299926406e+00,1.515523643401208709e+00
-6.767588241461731657e-01,9.054233806485276759e-01
5.012168333324542591e-01,-2.735252621501436110e-01
1.177492140114565045e+00,-1.129208130230661578e+00
9.835960510010222091e-01,-9.878892101480960530e-01
5.319960295928306132e-02,-4.636025231992359497e-01
-4.653323101935582518e-01,-3.814673062013800020e-02
-3.090424167424826174e-01,3.917085710080843164e-01
-4.315580760942114846e-01,1.051360644950069673e-01
-5.759734200887504096e-01,-1.150604889742159603e-01
-7.729565162147565838e-01,-1.453119989063244299e-01
-9.102371566272713377e-01,2.667889851025290193e-01
-8.457868688974820026e-01,5.833350776371412083e-01
-3.311915805548156788e-01,1.696820328198966332e-01
5.218746073348454750e-01,-8.103970786634542844e-02
8.107657288647037719e-01,1.054312482139652812e-01
1.301355015642753798e+00,1.224502359951313180e+00
1.146335069642018700e+00,1.630060616137563700e+00
5.150473142488103395e-01,7.656503322900257702e-01
4.523720093149986021e-01,3.326517560963439257e-02
2.480755366656597349e-01,-2.093369851768823453e-01
-2.731067639803173019e-01,4.669979132733658583e-02
-3.793939594468412335e-01,1.973644001325479402e-01
2.122752708568880625e-02,2.190757304875813882e-01
2.303225925797187101e-01,-1.640234873378482172e-01
9.764059390159879337e-02,-8.283908737508473286e-02
-6.232675003097432054e-03,1.619872127573553089e-01
-1.091108624392947424e-01,2.263572592274398776e-01
-4.438773816047034138e-01,2.254263412829945190e-01
2.438709915790056859e-01,1.215018896233768936e-01
2.713895256802147937e-01,8.411274244071016704e-02
-3.613732836082736988e-01,-1.866407912218333992e-02
-2.351544653353828951e-01,1.785701581791009629e-01
-3.867973400418512897e-01,6.102298080851644713e-01
-3.154912500821042687e-01,1.124122356420954150e+00
-2.461372536333447103e-01,1.622569714097361837e+00
-2.440455956266673609e-01,1.648512104563261360e+00
2.329705742121485068e-01,1.310436947749731296e+00
8.197492073544435653e-01,1.798485603758355644e+00
8.445183296090437164e-01,2.449499649876177632e+00
1.005565568396278864e-01,2.234963080402940783e+00
-3.568011384695832788e-01,1.208910605351420919e+00
2.008587696908051001e-01,8.353581540809079664e-01
4.743768035248666637e-01,1.170419727440455082e+00
2.616591476977924713e-01,9.880717200965651870e-01
2.758665540508906666e-01,9.131707472434832384e-01
5.662756141063025606e-01,4.883932748550381953e-01
5.140038289677558714e-01,-3.254445132517033712e-01
2.078321558156792648e-01,-9.326589965927890580e-01
7.748894447170572020e-02,-4.344591460241820635e-01
9.266430034289979689e-02,3.761770873783818470e-01
-1.927767968369593563e-02,8.559804774282759876e-01
-2.961682922190366635e-02,1.592676825086316583e+00
7.695753716661730692e-01,2.661357187341896413e+00
7.952633018429191569e-01,2.368637059587560323e+00
-3.643166530271796377e-01,1.227315411483334007e+00
-9.799622765925423140e-01,8.670461500321487991e-01
-7.357365521455401236e-01,1.446861766904010249e+00
-2.284479564455003942e-01,2.100664103613563594e+00
-5.207259288470721392e-01,2.356647840469367594e+00
-2.965165227827513128e-01,2.847253940687737739e+00
2.978184930666715191e-01,2.772743448413388379e+00
2.329482454423774662e-01,9.178543593641756981e-01
3.213325016261225353e-01,-8.728333021626293320e-01
4.498889841066570083e-01,-2.721169304338477701e+00
5.508003122907887406e-01,-4.481023900100780999e+00
1.310897474950807329e-01,-4.492146727721193500e+00
-4.773535454121436983e-01,-3.025978287153881841e+00
-7.937653474314935176e-01,-1.532099609448655420e+00
-7.742679715654873229e-01,-3.044148222979924934e-01
-5.960010237604506100e-01,4.760691809447736289e-01
-5.810437936998936737e-01,1.316650981978060075e+00
-3.360324844432696634e-01,1.193805219145930741e+00
-5.962347575371461650e-01,5.612758434557750808e-01
-7.084010877658629690e-01,7.488454647809734688e-01
-2.934995311343852609e-01,7.687687047916098582e-01
-2.499794629144065083e-01,6.503901149517841151e-01
-5.361408059116919977e-01,6.989479771692503896e-01
-7.137453857180375838e-01,1.229362249641265947e+00
-4.464770872946100533e-01,1.378495689913728173e+00
-2.934995311343852609e-01,7.687687047916098582e-01
-2.499794629144065083e-01,6.503901149517841151e-01
-3.865537096099416758e-02,5.712367167308677329e-01
7.770910769289385289e-01,2.923939461562256592e-01
5.789399489424421619e-01,-3.464510963606557969e-01
-5.367163744410384796e-01,-7.591157149437927076e-01
-6.031630710922428751e-01,-5.348173492716563615e-01
-5.206064490490531771e-01,-4.144350055555259815e-01
-3.679324912023058114e-01,-8.066815633372949046e-01
-7.613652549230078004e-02,-1.253730572264310394e+00
-1.863454230281798574e-01,-8.845363202476779207e-01
-2.531744790299287895e-01,-1.058542016110846362e-01
-3.409822218878740263e-01,4.164089200677578706e-01
-5.142788659906399884e-01,1.236071334936043355e-02
-4.578669836693229911e-01,-1.002853028776768074e+00
-4.578669836693229911e-01,-1.002853028776768074e+00
-7.271525753197266573e-01,-3.191379025194404084e-01
-7.271525753197266573e-01,-3.191379025194404084e-01
-5.958500610623942428e-01,-3.020356997966240908e-01
-5.477345731719582833e-01,-1.901697911003132624e-01
-7.271525753197266573e-01,-3.191379025194404084e-01
-5.898565014675904994e-01,-3.813783874183120925e-01
-5.898565014675904994e-01,-3.813783874183120925e-01
-9.600416085294762036e-02,2.469989807770021362e-01
5.748198935537657261e-03,5.734876899264325090e-01
-3.875817591797664496e-01,1.497324058093218724e-01
-5.520106405492145596e-01,-2.130286694688333926e-01
-8.046212987819766349e-01,-4.700018600248220824e-01
-8.046212987819766349e-01,-4.700018600248220824e-01
-9.088183142836319117e-01,-3.513292935224824887e-01
-9.621475691723531121e-01,-2.622837948768760308e-01
-8.018477013314954105e-01,-2.420391679320912370e-01
-5.931727156994535122e-01,-3.471120653703988479e-01
-7.675246627170712044e-01,-6.484997114259585249e-01
-9.551614603844489348e-01,-7.133490650854482640e-01
-8.820593694236513738e-01,-5.799387841250309705e-01
-3.543455894779920512e-01,-4.546502126216545037e-01
2.682589441598125582e-02,-7.505696517380106014e-01
1.534447460777419725e-01,-1.129528338138841903e+00
3.758256970275471454e-01,-4.466071015271521477e-02
1.719878287357212154e-01,9.688250800419140329e-01
-3.216926769991403368e-01,6.122636580429120512e-01
-5.707240792859531453e-01,1.429600707062176346e-01
1.901971794879066258e-01,-5.721584029974083330e-02
9.567824442412198316e-01,2.310140397460089604e-02
3.658773587901577029e-01,-6.322548242215282610e-02
-7.271525753197266573e-01,-3.191379025194404084e-01
-9.237422110643300766e-01,-3.338466341946388360e-01
-9.237422110643300766e-01,-3.338466341946388360e-01
-7.271525753197268793e-01,-3.191379025194404639e-01
-7.271525753197266573e-01,-3.191379025194404084e-01
-5.476103179812662480e-01,-2.896018470882527063e-01
-5.476103179812662480e-01,-2.896018470882527063e-01
-2.413045669483151190e-01,-1.499871534807263040e-01
2.582602062035260215e-01,2.169797952837180730e-02
4.296533808505144103e-01,-3.523010626166338533e-01
9.132440133460451026e-01,-2.208270699015585647e-01
7.120225160203309533e-01,3.131815872971008274e-01
-1.805354361364139293e-01,2.214819767251440252e-01
-3.538347898264664892e-01,9.438116961850646913e-02
-3.848159048781536473e-01,-3.065094698053894007e-01
-5.426519525477653261e-01,-1.071730679863384772e+00
-3.905096916569458232e-01,-9.136115616998041755e-01
-1.264877148598396728e-01,-3.471412410091970213e-01
-6.420775988294975811e-02,-4.019798859363528376e-02
4.807428899722723109e-02,3.268953634220767013e-01
-1.747330194492029143e-02,1.600280919947189240e+00
6.684237275087858698e-01,1.931749723258074480e+00
8.165700382202274454e-01,4.059944780512051987e-01
-8.451497158301171653e-02,-4.499996357168365990e-01
-1.822881058663398113e-01,-5.770696828018233582e-01
-1.566537573663398242e-01,-7.280934778860632672e-01
-2.689767937028317291e-01,-5.825987051983176901e-01
-1.513487984972511635e-01,-3.064181569687319251e-01
-2.851346295058163754e-02,-4.463847419687252960e-01
1.267974771783257015e+00,-1.804303605183450232e+00
3.117064431366561639e+00,-3.486762573612845362e+00
3.772142983301397301e+00,-4.464558886327277598e+00
2.733603948578924747e+00,-3.961803326092592226e+00
9.649032182299636107e-01,-2.471164998244743671e+00
-2.450397464903438238e-01,-2.306272878535053472e+00
-2.720218892650604348e-01,-3.425435723428382317e+00
-2.086882254722658148e-01,-2.756695585355135147e+00
-5.140201981651812968e-01,-8.674010209047142705e-01
-9.537071072999878663e-01,-2.087304306861434422e-02
-8.773188888611928027e-01,2.469911639664313097e-01
-2.653323238978887999e-01,3.915830947197613821e-01
-1.111777462233787261e-01,2.192595797648967670e-01
4.629005263098063261e-01,3.459347327369983738e-01
1.070476863310050542e+00,1.170825855245884117e+00
1.150587888720201901e+00,1.490279328156121297e+00
1.218641435532265671e+00,1.291822257701670251e+00
1.142707846268623761e+00,4.961665697243461959e-01
9.905417206307328692e-01,-4.574625285550082965e-01
4.078738338364951144e-01,-1.108705609189755137e+00
-4.170634589733275832e-01,-1.028349915511121981e+00
-7.453431594518199477e-01,-3.173220737087750765e-01
-7.494606008705001488e-01,1.522135338165561957e-01
-2.954284758344822848e-01,4.369975651475757061e-01
4.054009603267569317e-02,2.062180832497030880e-01
-1.400079006061277775e-01,7.563760047006271026e-02
-3.946452767106530812e-01,3.739476979212349450e-01
-5.429565854624677224e-01,2.357331039645357840e-01
-7.068225747213380261e-01,-1.844573252956034637e-02
-9.362276085465005560e-01,2.810595541683706400e-01
-1.018819864243657447e+00,6.165537621980190369e-02
-5.515541487144537403e-01,-2.700883676683430989e-01
-2.723815425859341111e-01,-7.362607494430591926e-01
-1.214160995093174350e-01,-9.988196026767535152e-01
-1.214160995093174350e-01,-9.988196026767535152e-01
-7.133208050551276096e-03,-9.149828310388575803e-01
-7.133208050551276096e-03,-9.149828310388575803e-01
-4.170634589733275832e-01,-1.028349915511121981e+00
-3.583462561538670044e-01,-3.514762979749335714e-01
2.223850779215715279e-01,-4.304030854074027967e-01
4.723227654336249470e-01,-7.689454993601924082e-01
1.518166418601969991e-01,-6.639204229059483264e-01
-2.946012368006292181e-01,-5.481376180631518658e-01
-2.989558474673104094e-01,-7.760467673338526662e-02
4.843198431660629411e-02,-3.605883866998227383e-01
-1.742226018425082901e-01,-7.090051027985614374e-01
-3.291938140030554183e-01,-2.720271138297379876e-01
-3.306778448013001914e-01,1.879901590050326865e-01
-3.281171413754914168e-01,4.165065882231697159e-01
-8.154411745085746732e-01,5.463488310820462379e-01
-1.681683346989705674e+00,6.659430350115153052e-01
-2.328156793031771254e+00,8.677412307873422215e-01
-2.944226783390303748e+00,7.375949971858754006e-01
-2.818073982271564137e+00,2.668558169801243940e-01
-1.985597044696317592e+00,-1.597665732599953259e-01
-1.148353910168147030e+00,-2.061986785040124948e-01
-5.709632385085315898e-01,-9.256797078088174757e-02
-7.263262251837013794e-01,-3.521312255134765867e-01
-5.811356641627830610e-01,-3.949999620161975256e-01
-4.216533225238685567e-01,-6.928640240567217334e-02
-6.951821210580313437e-01,-1.123396691757339444e-01
-7.719968512511160563e-01,-3.208336713037238663e-01
-7.719968512511160563e-01,-3.208336713037238663e-01
-7.218391715584215884e-01,-2.967157142573237927e-01
-5.117586671416277655e-01,-3.630435867509637093e-01
-1.995757540899408267e-01,-5.403578110507942789e-01
-3.399439110504026695e-02,-8.768533813249126396e-01
-1.541980734498530903e-01,-6.863166366010317043e-01
-3.119733911222547507e-01,-7.267199308834335625e-01
-3.126099603270694471e-01,-1.137677609937763012e+00
-1.597007437815486930e-01,-1.177171940491112956e+00
3.024894378118838170e-02,-6.696894725660098580e-01
4.408014087087304411e-02,-1.288039346357789106e-01
-1.124322124485299806e-01,3.542751174103728751e-01
-3.409822218878740263e-01,4.164089200677578706e-01
-4.512655740085962375e-01,1.818925378892865818e-01
-7.132642214554780757e-01,-3.873893907546516191e-01
-8.264297064087505751e-01,-1.058268023400564362e+00
-7.184370824580544879e-01,-1.121538444306454219e+00
-6.957235491710291875e-01,-7.669263488480992930e-01
-6.957235491710291875e-01,-7.669263488480992930e-01
-5.962849522298613314e-01,-9.366777284133784853e-01
-6.664762422958088184e-01,-8.683854244886840545e-01
-8.341971899448633598e-01,-7.435754303525756725e-01
-6.581446617885163830e-01,-8.105930069284215111e-01
-1.525774674417416099e-01,-1.094853662332439859e+00
2.882205414572089688e-02,-1.240926111812951094e+00
-3.261218442895235103e-01,-1.071645741187768675e+00
-5.025116334024130049e-01,-9.462187720911061639e-01
-4.610285586605735175e-01,-6.726737162209892595e-01
-6.654991162190085907e-01,-5.723920501745024536e-01
-7.132642214554780757e-01,-3.873893907546516191e-01
-3.856141732616466533e-01,3.211924609033381950e-01
-2.653902316428636832e-01,5.665442871865006280e-01
-7.100964137792149522e-01,6.697648945741302429e-02
-5.417434688703980372e-01,-1.641458295448715576e+00
1.057603306845953661e-01,-3.367312118630805706e+00
4.329264739272273288e-01,-3.299069241668987296e+00
2.500339252793398193e-01,-1.491878532042891337e+00
-8.029516965634481140e-02,2.713500777347085946e-01
7.397013203511712716e-03,5.017557316370723636e-03
9.382114022690085653e-02,-7.099269572819145724e-01
3.856600791000985157e-02,-6.992452431772998578e-01
-1.824530026133341920e-01,-1.682552885930469755e-01
-5.709116966879992372e-01,1.612738009595593436e-01
-1.590101707146304721e-01,-1.414761509408452855e-01
-3.585828051746812323e-02,-1.545051667695256370e-01
-3.539659891985214024e-01,2.360396218087151277e-01
-2.510334357109619274e-01,4.817200271648150456e-01
-2.510334357109621495e-01,4.817200271648147680e-01
-3.310081193625302731e-01,2.574010543411373378e-02
-5.206064490490531771e-01,-4.144350055555259815e-01
-9.228041904213782898e-01,-1.250031056309560198e-02
-4.017574967561316490e-01,-1.692938632266244581e-01
-2.058318175540022610e-01,-5.590433280422263396e-01
-9.401956869880122580e-01,-5.284792083057200385e-01
-1.171621678890420348e+00,-6.372484109331082447e-01
-1.171621678890420348e+00,-6.372484109331082447e-01
-3.908228153215280720e-01,-5.085095372429476734e-01
9.892946778519566553e-02,-4.470557334118455128e-01
1.003214549755490625e-01,-1.716984892165432930e-01
7.043293123346554552e-01,8.089869517475959393e-01
1.084272991872765379e+00,1.274588848721730505e+00
6.395924158279820970e-01,3.867815781284228427e-01
-7.403757263248638143e-01,-7.581426214623131488e-01
-2.090871849980899810e+00,-1.058025943717194384e+00
-2.580464775210855155e+00,-9.919539947987879858e-01
-1.803822414531241369e+00,-7.273756998106521987e-01
-7.364176172456535774e-01,-4.010702256283365519e-01
-7.127570568980922117e-01,-3.465469735770799198e-01
-3.712271664726328746e-01,-2.561613364484743305e-01
-4.465908721453223373e-01,-4.273491072624108211e-01
