1.679685183566642925e-01,2.328109375836328876e-01
-1.298702926662976265e-01,1.004271628525641225e+00
-1.499796167578558714e-01,1.049570885425899602e+00
-1.308381692136435237e-01,1.188639580710653121e+00
5.269414189246594132e-02,4.582414703364682262e-01
-1.928164139477111516e-01,1.051930282731659672e+00
-3.702014072929641908e-01,1.646171473180795708e+00
-3.399797956490732131e-01,2.750717493892783416e+00
-5.878119568629844999e-02,3.905379808319499713e+00
4.085040319624211325e-01,4.836437200332269093e+00
8.395883126742634817e-01,4.989211603336116241e+00
1.027324148608775412e+00,4.389786177955737223e+00
9.664374453497444062e-01,3.097274028069198604e+00
5.330509998281839357e-01,1.741240531640662947e+00
4.673356203252553298e-01,6.346546888536227504e-01
4.243670514474547906e-01,1.268376600979078117e-01
1.066409750111563248e+00,7.148392865838498755e-02
9.206901046376090303e-01,7.053211641157285383e-01
1.732837121193659069e+00,1.308035133582366116e+00
2.106139116816696077e+00,1.702203554385715689e+00
3.185198304060364638e+00,1.184136514423727027e+00
3.314018486575747602e+00,6.195485967140397232e-01
2.922176562775583797e+00,-4.106394154630169102e-02
2.078077857851187371e+00,-3.047710588581682978e-01
1.237015105727655495e+00,-4.920472578099852751e-02
9.839592370078745764e-01,-2.795953938827158702e-01
6.230021230507089003e-01,-5.479076148202786101e-01
3.436524467769965785e-01,-1.375733748104803977e+00
2.392603388691590949e-01,-1.127528930926363859e+00
3.916038348111727241e-01,-9.334000201259397000e-01
4.810716211184841717e-01,-5.477370459907688893e-01
8.789051163753871521e-01,-2.616858453280825891e-01
7.269549075629729851e-01,-8.063609816019428056e-01
1.031913050511871210e+00,-1.004761523835039805e+00
7.392565552123745443e-01,-1.193341857990466437e+00
1.023525819143721760e+00,-1.139021073024558461e+00
6.956233165587590861e-01,-1.203475456068993976e+00
-7.427841277127036901e-02,-9.668631939985175006e-01
-5.210679774788451457e-01,-6.944858727885550032e-01
-6.050630092172497587e-01,-6.294692377601474043e-01
8.511001201199325239e-02,-7.019771002609384025e-01
1.200587104038561420e-01,-4.608497462263439481e-01
4.192243779192690867e-01,-2.969563774045678728e-01
7.176056691051617697e-01,-3.259142786047015267e-02
6.825571955399269974e-01,1.981214239522794685e-01
8.672869491612800186e-02,4.843281829835334173e-01
-3.610788880065601836e-01,2.410090755399429130e-01
-4.930892735817106187e-01,1.477605738373010680e-01
-1.212860140843032702e-01,1.236179341165089124e-01
-1.433174155455367582e-02,1.069675686839820228e-01
-3.084066183923812599e-01,6.208462738220539290e-01
-1.761033276164832628e+00,2.872774703998852264e+00
-2.569095338569038045e+00,4.195795052496895217e+00
-3.058330532720220152e+00,4.697674201333205346e+00
-3.058330532720220152e+00,4.697674201333205346e+00
-4.457326697141994920e+00,6.603385190697340867e+00
-6.486060145415862621e+00,9.718852546264825421e+00
-8.062870877087869204e+00,1.188105635831754725e+01
-8.195422320148940898e+00,1.215421195883930139e+01
-7.005010127267235376e+00,1.069545565503003992e+01
-4.471802682791091499e+00,7.523167225924711765e+00
-2.312245144306148692e+00,4.630367928911588216e+00
-7.397807445474294807e-01,2.179652996790109931e+00
-6.128754409013292825e-01,1.519676278095752675e+00
-5.839714838063038427e-02,6.413497636193662421e-01
-2.361558003310210846e-02,3.155333430259226746e-01
-2.588157259602102966e-01,4.046387118834842145e-01
-8.719175131787614275e-01,5.666580355635165711e-01
-1.449174428167110174e+00,1.418160450335997469e+00
-1.381446535815116672e+00,1.461156489440863515e+00
-5.627286324846754173e-01,1.031693947854246396e+00
2.828644507057557211e-01,-1.900527226812419590e-01
4.206330401639683525e-01,-9.320798572020523587e-02
4.434449739517980493e-01,4.106060845633961731e-02
4.874109096333481550e-01,1.277671813770535625e-01
1.738614048661335787e-01,-1.286118548423796359e-01
-3.857950955168372165e-01,-4.090884621526030829e-01
-8.706194470571233524e-01,-7.935833792669688691e-01
-1.244223704487568138e+00,-7.295522009641507433e-01
-1.780889767329056239e+00,-1.402252849404829749e-01
-2.081944596458047414e+00,7.821220577795190421e-01
-2.239804121956545657e+00,1.308429202121667023e+00
-1.873590753767861772e+00,1.400887852830205116e+00
-1.123593746962310957e+00,8.642403424390618927e-01
-3.906935002325000461e-01,1.657200168475346791e-01
4.287239340407025118e-02,-2.390231725573383759e-01
-1.737142095820482235e-01,1.848055285763531841e-01
-6.488427045659109771e-01,7.863250665786992721e-01
-7.554667740752682992e-01,6.947414808716145806e-01
-4.247754244942987811e-01,1.664140155324970449e-01
1.976247269847942190e-01,-3.976900706650940975e-01
6.103377469027242430e-01,-6.245369071948970729e-01
5.148861257389153456e-01,-3.731855163352722493e-01
2.727839453932525138e-01,-7.804601664864211363e-01
-7.518381720434250126e-02,-1.533094639523317149e+00
-2.398353361772844194e-01,-1.468867382461003235e+00
-3.132308650512320436e-01,-4.199308640517875890e-01
-3.393363731332059152e-01,1.095585832398044079e+00
-2.703271143553311884e-01,1.383492524430030013e+00
-1.970800159761607606e-01,1.635134863752550238e+00
-9.527250682511215207e-02,1.397837835235666404e+00
-3.062017728079113321e-01,8.239153246814169274e-01
-3.676927088329592225e-02,3.355916434408224847e-01
3.122427065278061131e-01,2.443324527034810081e-02
7.835625637072546334e-01,2.579938266897063848e-01
7.462581210300721635e-01,2.967395538271639377e-01
4.966466413556070436e-01,2.699201538148194301e-01
1.414413866057540881e-01,6.794946053010948728e-02
1.450456623619927332e-01,1.292364756072043042e-01
3.410276045313737625e-01,5.530929455113396953e-01
4.690925244119882320e-01,1.110039974609833280e+00
6.884089339925595352e-01,1.665682393322417632e+00
6.797534221409893274e-01,1.760032452645440060e+00
6.403372628164442082e-01,1.825699130982785912e+00
5.530237551901876492e-01,1.405410465903541573e+00
5.178056038292441210e-01,1.328187703209254389e+00
6.514413089070668628e-01,1.284666848148099394e+00
6.708809684346374036e-01,1.421742764289676719e+00
6.525781213530489344e-01,9.837011858749110660e-01
3.774564160314477501e-01,5.828304936747212839e-01
-5.447646750100701429e-02,2.607292719567772532e-01
-5.054022251941467925e-01,8.023495153010631875e-02
-8.201540146043504453e-01,3.377159401199631567e-02
-1.053677188096308281e+00,3.123669769479121491e-02
-9.642939709110210922e-01,-2.254503395346405675e-02
-7.354146210530102534e-01,-3.967625814732043676e-01
-4.418154319778503369e-01,-8.930171827423273312e-01
-1.966728924402500189e-01,-1.313235117927213924e+00
-1.212838239146647595e-01,-1.590102835000625880e+00
-1.214164866926883274e-01,-1.317362298222571226e+00
-4.475078651500619675e-01,-1.609186940184573977e+00
-6.802122564235610902e-01,-2.104023730811289905e+00
-1.200793124822168156e+00,-2.848812603753482886e+00
-1.453910981913453915e+00,-2.802576564801440018e+00
-1.425873039294425659e+00,-1.999409471900531532e+00
-9.857729980435323558e-01,-1.282695135929134755e+00
-4.550528888596945265e-01,-5.233444244058336192e-01
7.734296034438663259e-02,-8.572778564465801665e-01
5.396675977737173113e-01,-9.595367522065791910e-01
1.530902208011394317e+00,-1.023466339606539099e+00
2.555207362333153487e+00,-4.711861910221554206e-01
4.771683218766270329e+00,7.471559705919612604e-01
4.246928965172562798e+00,8.877431654366154667e-01
3.032134941633497949e+00,1.007454468168399897e+00
-8.945758698703698553e-02,2.428884337069887323e-01
-4.118525469777762904e-01,4.116854049482713829e-01
-9.580350278432026023e-01,-6.092292834610173874e-02
-1.307741606850519878e+00,1.035352963886000677e-01
-2.397393312257205533e+00,7.079495001395423870e-01
-3.506852345632347934e+00,1.816780016060133285e+00
-4.167345371091069950e+00,2.356735962035910514e+00
-3.970533531291778662e+00,2.379536185419316219e+00
-2.962908290415869228e+00,1.683417377182783614e+00
-1.490043423990452975e+00,1.356213691223402629e+00
-7.085506299262039898e-02,1.154015857487562080e+00
6.480633392370441781e-01,1.737207825583845899e+00
9.663670050060025885e-01,1.832534351396430061e+00
1.056596548704509697e+00,1.980566596458999129e+00
8.499026456071527846e-01,1.876315815321665914e+00
3.948807341445413899e-01,1.846021438896619626e+00
-3.471948204096503843e-01,1.625648760758608757e+00
-3.829931595995393345e-01,1.973287324261532527e+00
-3.734515067400545063e-01,1.584577480657802129e+00
1.866894767380226638e-01,1.347292925385777718e+00
3.396186857223041922e-01,5.491699527937029535e-01
3.117836179245718764e-01,1.329492741900554359e-02
-1.395925664984770942e-01,-8.467068953188078284e-01
-5.033167780917287004e-01,-1.621964679192111181e+00
-9.235836044463885397e-01,-2.365033212091601555e+00
-1.029091484050105976e+00,-2.565448596393252512e+00
-1.146107405687808001e+00,-2.252850344610482392e+00
-1.094346289752718082e+00,-9.647507113664550715e-01
-9.014745857143933172e-01,8.674751022342824802e-02
-7.600132053936284882e-01,7.381768255602529916e-01
-7.657796806487517927e-01,3.826355872926583968e-01
-8.598796334101649341e-01,7.566512418645705840e-02
-8.946020641053705758e-01,-3.510302454000086003e-01
-8.772201017668491696e-01,-6.830190551515208375e-01
-8.671712261206553363e-01,-1.031292388053643316e+00
-7.622865491596459986e-01,-1.005834383269234467e+00
-5.887923925223463861e-01,-6.130677506113748620e-01
-8.047727715001357085e-01,2.228370187473281139e-01
-1.240965726061300956e+00,8.994926373119810359e-01
-1.786748183029528647e+00,1.711656583362544559e+00
-1.491053346734082963e+00,1.555719880851552217e+00
-1.064194746052363527e+00,9.129483184237382476e-01
-4.621497482991930861e-01,-6.323172413090794031e-01
-2.021181636276395688e-01,-1.193835276342980256e+00
1.391741927597235640e-02,-1.693773533170987333e+00
5.451509530477415683e-02,-1.394172785860607222e+00
-2.961707532048648006e-01,-1.161383911176908423e+00
-6.598506372503318840e-01,-6.127331942856805158e-01
-8.974903333915752457e-01,-6.502416915411260989e-01
-1.092939014064805203e+00,-6.575083347983983195e-01
-1.041866868759407927e+00,-7.929653872787594260e-01
-7.918330523137999677e-01,-7.942675869120158216e-01
-3.655350204409890669e-01,-4.862866501174467060e-01
-1.197615901778401395e-02,-8.586343999367266333e-01
2.263320810737592115e-01,-1.014647346303316544e+00
2.108364515803842487e-01,-1.375199964406631947e+00
1.531911658929288045e-01,-8.054777621634526819e-01
7.216385216981384410e-02,-4.589908324857228106e-01
-1.337522135253467470e-01,-1.541944915235310132e-01
-6.063866811692164571e-01,-7.401215424585686486e-01
-1.215842070833627053e+00,-1.348076767973380941e+00
-1.510870060871126741e+00,-1.745485838468668671e+00
-1.457717848833169683e+00,-1.514538812332416606e+00
-7.808094747842774241e-01,-9.033832092200918540e-01
-2.770956277909302767e-01,-4.368693972338932863e-01
1.010682820038584229e-01,-1.701566715280139197e-01
-2.472627867916570577e-01,-6.386848290013612539e-01
-1.956263573140406831e-01,-5.846396269193441242e-01
-5.093537554133005518e-02,-4.227976377565649257e-01
2.757452019639587415e-01,1.472009806698998668e-01
5.627457261401033195e-01,3.414893510161373658e-01
3.874880747666777370e-01,2.796755829028531593e-01
3.773508738830177317e-02,3.839513125147427097e-02
-5.044426084903650409e-01,-3.376866186806560810e-01
-7.758337463213694774e-01,-9.691450882775530795e-01
-8.305779334932485991e-01,-1.467260737473955690e+00
-7.305189746576910004e-01,-1.670511362649346410e+00
-8.457513382188437401e-01,-1.790691917183076187e+00
-1.100389440152189424e+00,-1.963546171931358719e+00
-9.696323745666526328e-01,-2.034525898582185910e+00
-1.217954633015386534e+00,-2.032560699305821839e+00
-1.406319423044495531e+00,-1.832826316239980713e+00
-1.782089514937589492e+00,-1.746417779869098297e+00
-1.641785592079347600e+00,-1.121101399357886219e+00
-1.253732474961511523e+00,-1.001897125828753010e+00
-7.260646632612259843e-01,-1.230722113453347033e+00
-5.822316817139900902e-01,-1.900400168812926616e+00
-5.775071456822190585e-01,-2.143075475135768571e+00
-8.379968017976333616e-01,-1.955248812746848808e+00
-1.000602026733335315e+00,-1.728906503282724660e+00
-1.071113814396089436e+00,-1.623158569752245706e+00
-1.148978500938197866e+00,-1.847910349549601428e+00
-8.928368326521887166e-01,-1.612675547881940785e+00
-6.628204864287626785e-01,-9.458937977875894187e-01
-4.189532888416553913e-01,-2.038039467581774511e-01
-8.956601441426892407e-02,-7.446248414064356169e-02
-1.724222950051821582e-03,-5.921359804968415741e-01
-2.084685955720482278e-02,-1.101846056361478698e+00
-4.231722771949588680e-01,-1.185393287471143475e+00
-6.915911552808228224e-01,-1.519288096840621050e+00
-9.705940455343829987e-01,-1.679282809392338205e+00
-9.148970644021058307e-01,-1.895534015946375606e+00
-6.932617037778316949e-01,-1.236681436175346205e+00
-4.918123435353686790e-01,-3.519793004186442809e-01
-2.962137775190522571e-01,3.176980589010671152e-01
-4.783719984714531193e-01,4.574042299040763648e-01
-3.904656995216329585e-01,3.690443177208920233e-01
-4.081470601300153933e-01,4.227930083748809853e-01
-3.052713628524114653e-01,4.119182478159119642e-02
-2.340213039309778087e-01,-1.929271311130572319e-01
-2.343206702811431730e-01,-3.438879378946978482e-01
-1.547364614180015419e-01,-5.773209354116551895e-01
-3.752686822777903664e-01,-8.660323402873822962e-01
-5.865633808823058626e-01,-1.158370671412493058e+00
-7.438673620020662680e-01,-1.344428896804692020e+00
-6.732707093147769495e-01,-5.098310013210463065e-01
-9.876509860175222699e-02,3.919074328713794686e-01
5.844400379131327039e-01,8.409415523442552720e-01
1.885457092876444918e+00,4.573171914409039918e-01
1.997856103719843679e+00,-3.394754914255086464e-01
1.769629796008314271e+00,-7.010408131168149870e-01
8.531407393982357590e-01,-7.588637822108332820e-01
1.069217215423614364e+00,-3.850832646347935317e-01
1.403826730425140390e+00,-1.423476945810687178e-01
1.695438024987196535e+00,7.481780527191008237e-03
1.379790751265202120e+00,-1.954084639789531799e-02
1.379790751265202120e+00,-1.954084639789531799e-02
1.379790751265202120e+00,-1.954084639789531799e-02
1.356148445414820713e+00,-2.023832977088727281e-01
6.022419490435046985e-01,-6.286997534026419476e-01
-2.115715394391396997e-01,-9.446599642387720763e-01
-6.454712514530142053e-01,-9.923314578854687262e-01
-7.145117987648522684e-01,-5.324754885860957243e-01
-5.759588314114318930e-01,4.327012833855269913e-01
-3.906756192801254524e-01,1.557405400229433301e+00
-1.916890355958530689e-01,1.549807483079491899e+00
-1.054252539197153005e-01,2.305090722893642585e+00
1.048351291962770770e-01,2.258404861188293200e+00
3.297658887046629461e-01,2.096266739125707712e+00
3.566138124529930065e-01,1.251198744957468634e+00
1.582123373884656015e-01,3.990286651761293935e-01
7.990053330175481139e-03,1.305543824783087226e-01
8.108025023075652107e-03,-1.695853063630271829e-01
-1.876893298957653042e-02,-1.506514141855131994e-01
-2.998480542756439271e-01,-5.431048636834900911e-01
-7.207395362491787472e-01,-3.627669164342506303e-01
-7.741581682354712335e-01,-1.797934547108436809e-01
-8.118856354632730810e-01,-5.786218677500367530e-03
-6.454724250039104438e-01,2.978794905890251588e-02
-6.346288682490524025e-01,-1.899967955873600733e-01
-4.093572531494158451e-01,-1.729643933382353782e-01
-2.447049549385356057e-02,4.237632528566426804e-01
3.121040950668513281e-01,1.059651173087368115e+00
1.320127236530997061e+00,1.403875255604102090e+00
1.678696237527344426e+00,1.214755214604182232e+00
1.883970184582690832e+00,8.972405330846313642e-01
7.780853296076227776e-01,5.229230300238291163e-01
-2.673924282618738713e-01,1.661134013035737711e-01
-9.820118221038012241e-01,4.726947256257638674e-01
-1.156531127094852840e+00,6.670112097504398152e-01
-9.144189318430705482e-01,8.496198259822164145e-01
-6.564367863761898514e-01,4.062145842549811370e-01
-5.220354758119327698e-01,4.929335149364526270e-02
-6.774985924803993420e-01,-4.914864259807490421e-01
-1.151609390158338631e+00,-3.859865260072763427e-01
-1.162627756169954951e+00,-3.365938990181819856e-01
-9.662583306150530627e-01,-8.532726659310914397e-02
4.780820925698774093e-02,6.472943302435071010e-03
9.389078565929885878e-01,3.150488770799436122e-01
1.363086580982385776e+00,5.594579315935401809e-01
1.384086423844944402e+00,6.095891426654609369e-01
1.061845904932343432e+00,4.117434185436237293e-01
7.720044426861104592e-01,2.338524157170906448e-01
4.897783641279023215e-01,1.900205238911671091e-01
3.016834942513992868e-01,8.476489918548098246e-02
-1.109496196728770451e-01,-1.050574524277460287e-01
2.278436458084938110e-01,-3.297910315013686811e-01
1.083366743200117194e-01,-6.331723692760671263e-01
-1.807350200502960413e-01,-1.073376194365947667e+00
-6.027211076656221467e-01,-1.486296611156634473e+00
-2.056786281670778815e-01,-1.035148990118683665e+00
1.001085728384556528e-03,-3.822503694737826585e-01
4.566874892706221933e-01,5.287828238661970159e-01
4.233807218739953360e-01,8.244362818573359730e-01
7.674159360896104509e-01,1.002833787954417133e+00
7.890618213879481146e-01,8.884342566729952484e-01
6.867773634437877028e-01,5.158543383329614596e-01
4.475899039157892334e-01,9.898807210156830572e-02
2.768795264351976426e-01,-2.592843532391474470e-01
1.817381405535091199e-01,-3.919022211755112672e-01
2.943055047779326028e-01,-2.739318538169470685e-01
1.522498925209108123e-01,-5.647119649222944737e-01
5.915437834197673911e-02,-7.640840074919196256e-01
1.399869507690536252e-01,-7.799502553739453559e-01
4.083330119059109253e-01,-3.754134062322957432e-01
2.943976917630400925e-01,-4.104071305130875813e-01
-2.122876361439691162e-01,-8.120975732759245780e-01
-8.386349183608117208e-01,-1.234037617283793242e+00
-9.179808892526283293e-01,-1.081236651108776536e+00
-2.215169866207110649e-01,-7.289654646688561446e-01
4.245284526120617352e-01,-4.564476655041718178e-01
6.337003007770607432e-01,-5.143053445297505188e-01
2.641547104058858952e-01,-5.604239510529791524e-01
3.461506681425433052e-02,-3.210195691335337997e-01
-2.755354258562378589e-01,-2.484326241173817271e-02
-1.593930053898771626e-01,3.722336276166786084e-01
-3.441603697357031866e-01,1.206576860940763662e+00
-1.170273089407654621e-01,1.068442335761156325e+00
2.083160367578776664e-02,1.050642989005850403e+00
4.057493481850711348e-01,-1.763292717854098024e-01
7.228987744354866685e-01,-5.472187279997362541e-01
9.658009718455763393e-01,-1.127938137323964751e+00
8.940786770538029504e-01,-1.259251739232696732e+00
5.556857288649630355e-01,-1.071086368079233520e+00
1.828341651524216238e-01,-7.471430984961203725e-01
9.265934709439986594e-02,-8.537874648208407247e-02
1.077410844210796720e-01,-1.247808224928382698e-01
1.557284587359403505e-01,-2.256093394270563268e-01
8.159418073939912752e-02,-3.237066781037537533e-01
2.746495950512763823e-02,-1.639345969551252724e-01
-2.119985243330446412e-01,2.757662161823834501e-01
-6.311608385451605852e-01,8.663482118806374588e-02
-7.278276421130904783e-01,1.338890226943201256e-01
-7.616887359145756431e-01,7.716176485430031873e-02
-3.711608688522277655e-01,1.833828409206428034e-01
-2.315498534807589603e-01,1.401888948484459330e-01
1.017362953782628004e-02,-1.321492391524185517e-01
-2.966137603860699024e-01,-1.136809430279487054e-01
-5.758395005587292337e-01,-4.061903988929902592e-02
-4.087730378385801555e-01,1.446398908466554889e-01
-9.200990979673118186e-02,2.765427113576959250e-01
1.384167033918543288e-01,2.923256703485098140e-01
-5.630352206614456234e-01,-7.879779987051345469e-02
-7.523381292488865446e-01,-2.467050676216596128e-01
-6.156999290944805692e-01,-4.384741548565551650e-01
-1.545163225223075698e-01,-4.533290766570763353e-02
1.327222687512946975e-01,-2.715057687226037353e-01
2.675948557063031683e-02,-6.443778660461806362e-01
1.614885018245521275e-01,-1.472292096987740218e+00
1.992780368963764370e-01,-1.757498689303104822e+00
4.542322085781047014e-01,-1.581530533951709394e+00
3.741471197314844011e-01,-9.955692932624958802e-01
3.934473471953693624e-02,-5.643866491677278496e-01
-2.557520402878561000e-02,-2.304652508431509483e-01
-6.709515473427847543e-02,-6.416629457731252290e-03
-3.634340341034105193e-01,-5.055893159454348806e-01
-4.522571459244341119e-01,-4.981993847834755296e-01
-4.580697416480846162e-01,-5.513593110667655006e-01
1.683249291006638226e-01,-8.848903358707628508e-02
4.836813565719496610e-01,-2.120608253105844485e-02
6.396808689018446126e-01,-3.013011341489399419e-01
4.930250998362212811e-01,-3.885913292762842586e-01
4.486757792955491375e-01,-1.393211509280451177e-01
4.355999451396075361e-01,5.919213856572409505e-01
5.440157030741966659e-01,9.112055186664492767e-01
3.954070369812182073e-01,7.440782062975719313e-01
3.538275402860739938e-01,4.484720906801734075e-01
2.826920372957963390e-01,1.337171336758077693e-02
3.317570773724595745e-01,5.006196410812131098e-02
1.603381991771676285e-01,8.234434652079687667e-02
1.077286215643523531e-01,-2.173397255428494990e-01
4.313678052262007179e-01,-6.460562168109470482e-01
5.158100873224943372e-01,-1.323907437663120135e+00
7.071843432089123249e-01,-2.056289910796769149e+00
8.102776449486984722e-01,-3.158476296476680378e+00
8.102776449486984722e-01,-3.158476296476680378e+00
7.127148867261052789e-01,-3.137341442891920629e+00
3.427527036135432636e-01,-2.415797879723525998e+00
3.465992762486680423e-01,-2.046999558008010922e+00
1.500834329348603446e-01,-1.455198163423873758e+00
8.098751639342703645e-02,-7.163578249796409558e-01
5.298338278381937994e-02,-7.035015192287459307e-01
1.917764843645009265e-01,-3.453071847417539253e-01
8.667484137286936285e-02,-8.821327749602901891e-01
-2.776856568301327988e-01,-1.750908983123312446e+00
-3.133903633895165353e-01,-3.012113781904825149e+00
-3.656726335845659343e-02,-3.699237621518107755e+00
4.573949418330279237e-01,-3.505351556317751527e+00
7.623470032092580784e-01,-3.252727910495115449e+00
6.341174054203685406e-01,-2.159580093416083368e+00
6.820605326271462765e-01,-2.270480808651250459e+00
3.580355019663326588e-01,-1.712331020585904806e+00
3.900188694022646563e-01,-9.275080958302478473e-01
2.702122168314771145e-01,-1.008397690879166531e+00
2.906660896205616740e-01,-5.429176812353997406e-01
-5.723387166899514267e-02,-3.380875563997288169e-01
1.551454298611416177e-02,-1.180938635063376752e-03
8.758052765972157427e-02,4.517902044707733378e-02
3.021125260830827552e-01,2.044857953785353122e-01
3.010566201616201587e-01,5.483113911034428467e-01
6.925887666178075219e-02,7.741089313605885591e-01
-3.623297192475466999e-01,6.305384689969723011e-01
-7.465955253249166867e-01,4.459643081418498411e-01
-9.279361539793017366e-01,5.066749323540041816e-01
-5.452128055679230645e-01,8.491680708113149567e-01
-3.332105644670826372e-01,1.244686536958160117e+00
4.935702046002519994e-02,1.092374983504701635e+00
-2.284701201905208617e-02,1.460115738643680050e+00
1.151680875082453370e-01,1.148634727184931315e+00
2.967306606404997438e-01,1.712925885447359908e+00
5.525159565545832985e-01,2.971020438248910267e+00
7.762025931570072368e-01,4.872188831857275915e+00
7.186936533489173273e-01,5.896931523132860953e+00
6.296070060728262696e-01,5.903910910361278574e+00
3.861695007184967054e-01,4.742367638781144201e+00
1.233204778737831825e-01,2.935633877358511779e+00
-2.994241095736305258e-02,1.382627848038296081e+00
-7.540128368904479295e-02,5.457574930708822825e-01
1.127011243214852826e-01,5.391185947813403878e-01
1.205550987742940172e-01,2.364153019052293858e-01
1.546970124235997057e-01,7.063907086753730136e-01
8.869183798531049545e-02,1.165144902491292545e+00
8.869183798531049545e-02,1.165144902491292545e+00
2.532494889379953151e-01,9.784035196044794658e-01
3.743670845882495213e-01,8.903471322343352590e-01
4.367794656293750299e-01,1.045343767918850864e+00
5.267103325800223113e-01,1.538564962757984045e+00
5.955704440414975043e-01,2.090159974079283334e+00
7.594776417688026138e-01,2.765876669037482305e+00
7.286644004168152389e-01,2.785795335440001796e+00
5.549409076931209883e-01,2.284264256219006306e+00
3.222024968301485104e-01,1.766759177938558967e+00
3.968353191541598157e-01,1.357943171583254394e+00
7.591061586895829771e-01,1.498267073776589520e+00
5.553809260740886211e-01,1.895221100000071379e+00
4.097142237512610974e-01,2.037119706647849249e+00
-5.321752178390835170e-02,1.613888863304260513e+00
1.433164527984963077e-01,1.240972929471956698e+00
4.681236626246922106e-02,1.175256345198690822e+00
3.497639969325022635e-02,9.371196577764514535e-01
3.079630947704211849e-02,5.303927580491313298e-01
-3.617806447683475368e-01,-1.489402390496353257e-01
-6.419508818798166372e-01,7.149942627292489583e-02
-8.491056019002406474e-01,1.591902717711128623e-01
-1.062884447680300326e+00,2.421506368221216232e-01
-9.258950137943275926e-01,2.059809135111475287e-01
-7.346347980290903745e-01,-6.728295200307959911e-03
-4.189203338904529117e-01,-3.834847467779840813e-02
-7.785725085262935607e-01,3.172499327051891971e-02
-7.495279235853852251e-01,1.169985353743609180e-01
-1.307228468980015101e+00,2.936638543219339259e-01
-1.360345451714574549e+00,5.299078938658300375e-01
-1.516186272756435471e+00,7.442082001950939274e-01
-1.108187281390298207e+00,9.781959175763277337e-01
-6.992905367938885286e-01,1.087981226011284441e+00
-2.672497935173773209e-01,1.203572153639353992e+00
-7.047299302912132801e-02,7.437666197182292160e-01
4.325772403838927527e-02,4.501900802709244420e-01
1.456075343869329408e-01,-1.383766912000142235e-01
5.265980740839151242e-01,-1.024145446281062993e-01
9.389050180566375081e-01,-3.512629239180824481e-01
9.072167491066027711e-01,-4.147809233666931439e-01
8.686241691431524359e-01,-4.489970267508249790e-01
-2.917526570122060126e-02,6.018276913007724049e-01
-5.268772111209708842e-02,1.270865061715138022e+00
-2.845415276861262832e-02,1.887210182704464279e+00
5.192038368351218486e-02,2.314927166636346456e+00
3.448221181119427992e-01,2.102017176331341108e+00
4.033618297691910493e-01,1.585316187293951851e+00
3.695026946772637100e-01,1.011166972302119493e+00
-1.533735757723162299e-02,7.335022200741251330e-01
2.509930488877373453e-02,3.539763327448088304e-01
1.408057382885096430e-02,1.835505053897257266e-01
9.153374232367339491e-01,2.854788136459484593e-01
1.681259458817602415e+00,7.243448467543410763e-01
3.980362874340850787e+00,1.529690529387612186e+00
4.572307546737045314e+00,2.096871404162909069e+00
4.271087759770753500e+00,2.249016888812187531e+00
2.150786424506814676e+00,1.955518246980352259e+00
1.020594132522019581e+00,1.820263638538675233e+00
5.793534536128446266e-01,1.358019760864361825e+00
3.186458909176318466e-01,8.565386951965417994e-01
5.270875119093010319e-01,2.949282564322988076e-01
7.565745254442474144e-01,8.078912054986248092e-02
1.704230063997440814e+00,-1.857428593803327477e-01
1.697936716156048353e+00,-1.661764355488517531e-01
1.682894764472833371e+00,4.447297548905180219e-03
7.087087853434729245e-01,4.868487328395835340e-02
5.877368442183273922e-01,-1.294812974539664638e-02
9.870331292705437631e-01,5.909057299008605435e-01
1.119463975767351238e+00,1.501758995658372786e+00
1.322538973693892839e+00,2.266834119748714738e+00
1.161047479918878800e+00,2.351035140883397823e+00
8.316491352345551924e-01,1.912891906470096881e+00
5.808226581548564527e-01,1.096108761157383205e+00
2.120161467392095989e-01,4.256395899852487563e-01
-1.616080956504665003e-02,4.520118056961877628e-02
-4.028545114224023060e-01,1.727285939618017629e-01
-2.952729549441068801e-01,2.669465428138070306e-01
-5.252783512259684429e-01,-9.808691494088159213e-02
-3.457922803813640034e-01,-1.116949877312080341e-02
-3.096535313806454415e-01,4.243739378591596667e-01
-5.704905400421169011e-03,1.180068111750919302e+00
2.490562640288668250e-01,1.452085804648008294e+00
3.422159735911991518e-01,1.155036727398073504e+00
3.033947206119612661e-01,8.358281921787369395e-01
-1.583763388780850823e-01,4.180092280586963360e-01
-1.189819743251916140e-01,3.923744991432057683e-01
-1.896457092571504910e-01,2.356913032966290733e-01
1.059356434364850108e-01,2.894932279797474139e-01
-1.758054260035106786e-01,2.501051507062530543e-01
-2.962137775190522571e-01,3.176980589010671152e-01
-4.783719984714531193e-01,4.574042299040763648e-01
-7.820976949209497153e-01,4.588493717133154681e-01
-1.073249598534180560e+00,3.713815401226962520e-01
-1.168789399272729623e+00,1.808190738421131538e-01
-9.454663506934189998e-01,4.368102410838661798e-02
-4.670303309569925343e-01,1.990803962633866733e-02
-5.650253944138646650e-02,2.561004575581574683e-01
1.650559860550651903e-01,3.263497786636500586e-01
1.217039165012527430e-01,5.433159023538902677e-01
-1.152682611675544117e-01,3.909215320433368501e-01
1.463810091314571571e-01,2.685665108354428621e-01
5.126565441967699810e-01,-2.268408629012042335e-02
1.033119504964174595e+00,-1.168455977107855509e-01
1.152650107186305783e+00,4.771209831455447414e-02
1.205991986730410082e+00,5.975156034532702609e-01
1.028456126425143502e+00,1.585009156902084326e+00
9.252790943918468569e-01,1.798528309381554058e+00
5.620086411242688484e-01,1.740549085227580450e+00
1.646023435696344628e-01,8.301549487086212764e-01
-2.550946686316279965e-01,6.019012652443260780e-01
6.352231043880023076e-02,4.714578608641942781e-01
5.012432718081594185e-01,8.198710158095703360e-01
1.494835316307203676e+00,1.368399035800842878e+00
2.013765208065485535e+00,1.785927018359794394e+00
2.432535812150063759e+00,1.891529731234728784e+00
2.077708422374838548e+00,1.557975026112185857e+00
1.465737163810382881e+00,8.176020464731853510e-01
1.140241169412608224e+00,-6.724338731107963596e-02
2.171306109588913458e+00,-1.467671768600748550e+00
3.628998080345384736e+00,-2.967224432905982034e+00
4.618575658069334011e+00,-4.480792304236518753e+00
5.187572812515264253e+00,-5.158878520957019376e+00
5.092715569543551091e+00,-4.894738766201863100e+00
4.845678346098230449e+00,-3.337015203111491246e+00
3.686968499788169318e+00,-1.916876347807492609e+00
2.337212633534517803e+00,-5.577392961135245741e-01
1.266944039770934394e+00,-4.604814732016577761e-01
3.864482175106297435e-01,2.371251534766840030e-01
-4.637005232225895057e-02,6.244610516180379989e-01
1.843334937848723487e-01,8.557038926489501929e-01
-1.781301227441192681e-01,1.054953871432257939e+00
-1.650492747156451501e-01,1.364825046435840239e+00
-4.200302408718278868e-01,1.599811569807431555e+00
-1.540505991453202383e-01,1.584301439035731285e+00
-2.124810333949860297e-01,1.151313427127895306e+00
-1.259308964940731024e-01,4.739644342056064108e-01
-4.390059540514628655e-01,-8.034326973899332813e-01
-9.053949595130413863e-01,-2.968586942230862835e+00
-1.557151283920520379e+00,-5.264860411197389567e+00
-1.829790518441736680e+00,-7.011273187922495431e+00
-1.738579224328529627e+00,-7.339131515506794656e+00
-1.203352004383712259e+00,-5.814502254794748914e+00
-5.792468915336035362e-01,-3.913616352181135571e+00
4.202123540206693236e-02,-1.762815990045175640e+00
4.066377342800886474e-01,-5.856911402647190235e-01
4.627534055297465310e-01,1.489824487001882858e-01
5.986381319277507274e-01,5.691183055453387096e-01
1.043898147820498057e+00,6.244916307426023883e-01
1.302994786882634815e+00,9.680664468094126729e-01
2.059701765022132314e+00,9.212081353578536191e-01
2.614298821020483832e+00,9.246689466285454850e-01
3.384755917136433645e+00,6.505853695173946516e-01
2.728794576662131988e+00,5.400204435437087058e-01
2.053697990433048126e+00,5.699164062621634441e-01
1.033699324886400150e+00,6.854852591625043567e-01
7.914992869186036062e-01,7.423088127601474850e-01
2.643299810103270642e-01,4.675691736923308639e-01
-3.308482199216852271e-01,3.044162215875513278e-01
-2.340657429979653426e-01,3.246706778718253528e-01
-3.476593883622022263e-01,6.592289387920948762e-01
-5.199783562479852739e-01,6.225255002510953206e-01
-5.974506173291389555e-01,6.063122499273940758e-01
-5.198090685385803322e-01,2.464476019285989083e-01
-2.130845210517818555e-01,-5.433311317961390108e-01
-2.422915846282744090e-01,-9.104179296703065472e-01
-4.545069234617884479e-01,-1.189840510206676916e+00
-7.176924676708468231e-01,-7.385838262326333004e-01
-7.183125089742787850e-01,-7.453270774468165882e-01
-2.003662017369714776e-01,-5.542859884709356866e-01
6.473973412099222058e-01,-6.002226499047104147e-01
1.070028398664504943e+00,-6.972615905717352014e-01
9.181167306273567696e-01,-9.280431784662152017e-01
4.451761333579380420e-01,-7.718165763036216598e-01
-1.125004624200115211e-01,-2.220994279635786495e-01
-4.987311655084215034e-01,2.675139140147206329e-01
-1.438301916200295905e+00,6.926190068492958929e-01
-2.358319902788137412e+00,1.113232565494662651e+00
-3.124508394519996290e+00,1.422603337052976480e+00
-2.730934933407286547e+00,1.182765684561919883e+00
-2.127636328642834140e+00,7.264056851327995723e-01
-1.221957979832996255e+00,2.019853732513026690e-01
-9.371346281882622087e-01,-2.801709456260516595e-01
-3.937437600219771960e-01,-3.973967557110752447e-01
-1.078969549114376481e+00,-4.694305032235064346e-01
-1.834918249931178247e+00,-1.285287509363401692e-01
-2.633398230686770702e+00,7.833951199226872608e-02
-2.920895959588242885e+00,3.726944687674195178e-01
-2.661409790617051296e+00,5.969159734202071910e-01
-1.819090063023638848e+00,5.979426930298613607e-01
-8.981547123131174981e-01,7.158205363506283669e-01
-9.212074158791656864e-02,6.486566815351473281e-01
9.340839190826498439e-02,8.941053094073989627e-01
2.247536280283418397e-01,9.513324928265285418e-01
1.220104833173361186e-01,8.779944787294868824e-01
9.401264223358118954e-02,5.872520475214602076e-01
9.956137400661260739e-02,2.096818632767075974e-01
1.564170797601000251e-01,5.332216380438695169e-02
2.674211698089445921e-01,-6.413876363817215542e-02
3.220299695450898891e-01,-2.775464043303316544e-02
2.095089090817001398e-01,1.496432503112707368e-01
1.375924093803399806e-01,1.622811576236948272e-01
2.563112710845515813e-02,1.353461030273199646e-02
2.275670210943726846e-01,-1.986704769448898421e-03
2.476155274348104673e-01,1.282730295385821895e-01
2.364076841392938333e-01,3.182226007788832578e-01
5.911838576345655868e-04,3.472475203041894831e-01
-9.224326249871830918e-02,2.130613160349564550e-01
-4.780522884420961294e-01,6.868734096399452538e-01
-2.989896332786418642e-01,5.656100951022824397e-01
-3.672039402233190364e-01,2.560631513152911154e-01
3.417677389160869023e-02,-5.962434817497093142e-01
3.072077338177819569e-02,-9.758393990723587264e-01
2.692134057510248701e-01,-1.036683782863231373e+00
-1.728520483734642399e-01,-1.256061227492818455e+00
-2.092618251705316845e-01,-9.269276716335802524e-01
-5.470672603367543463e-01,-9.147778478719756912e-01
-7.372617281048559137e-03,-8.061121494077511107e-01
-1.027726389266037654e-01,-1.617760613329522146e+00
-3.974405998531673617e-02,-2.025257308324279748e+00
1.135057377661796985e-01,-2.623812042738209005e+00
3.399495493695386394e-01,-2.650155356619400937e+00
5.091023386558143349e-01,-2.595513970721830876e+00
5.927942020735565976e-01,-1.999048663190966302e+00
6.557987397758546777e-01,-1.543687348371686197e+00
4.582101037967173940e-01,-1.106122823816505063e+00
2.307373937154898191e-01,-1.104295694898508984e+00
3.636599858128782836e-01,-1.128815033641684229e+00
4.172139188213203620e-01,-9.556022211764588770e-01
8.524772945411187575e-01,-8.638317071743566444e-01
8.524772945411187575e-01,-8.638317071743566444e-01
7.512180701041488717e-01,-5.026146428974807012e-01
3.473635362414587147e-01,-7.546248531151781291e-01
-9.858592396136180505e-03,-7.962428738268353401e-01
2.204613089986913119e-02,-1.264570489469805770e+00
-5.015964956746252201e-02,-1.133582089850559971e+00
-1.269584871897307676e-01,-8.881066706618950812e-01
-2.667492588481845117e-01,-9.907437154734651807e-01
-4.722530713162991223e-01,-1.351358227096472353e+00
-4.489943587499572453e-01,-1.758904603273016676e+00
-3.499415570195993364e-01,-1.853226034625844676e+00
-1.160819361216403056e-01,-1.335202669366060579e+00
4.098269753493300610e-02,-1.515646567958489621e+00
9.710690567555495256e-02,-8.830595400240273118e-01
1.798083957225887486e-01,-1.328898879828347201e+00
1.401404237590410939e-01,-8.857283619918118189e-01
1.056847696195991615e-01,-1.135542424660834993e+00
-2.480869159526080669e-01,-8.375084002321117049e-01
-5.680329203845457808e-01,-6.788576267518132701e-01
-9.570304579662909372e-01,-7.547923307997157494e-01
-8.719002666921705780e-01,-5.682683504348543524e-01
-5.963698160383493763e-01,-4.007006329772876962e-01
-1.349184189898114394e-01,-9.769618259660468873e-02
-8.318706079070246895e-02,-5.272815245963443642e-01
3.278950085442100537e-02,-9.006354549153281486e-01
-1.694642124502216129e-01,-8.761164705408780451e-01
-6.186083645848010626e-01,-9.821838347961534543e-01
-9.081130482282457894e-01,-5.718957338151121617e-01
-1.277842581494633256e+00,-4.833213373475201413e-01
-8.400402847793312366e-01,5.470499234764487212e-02
-6.158170886891448648e-01,2.185336374229215617e-01
-2.534251959594818748e-01,2.836934097542262445e-01
1.836975904442897378e-01,7.126902530296781446e-01
4.119846063646573908e-01,6.529025327018399549e-01
7.282116542688907845e-01,2.929796927434483167e-01
5.881483410660023337e-01,-5.714391847033509775e-01
7.316005115238491952e-01,-9.338239704646181805e-01
8.403303135969324433e-01,-8.169707024758597891e-01
7.988543239130555529e-01,-8.464076398010443869e-01
6.310838626771875237e-01,-7.836596005129294884e-01
3.219624905897622846e-01,-8.570094670226777733e-01
3.341822888657734747e-02,-9.924633714479796920e-01
-1.269584871897307676e-01,-8.881066706618950812e-01
-4.947214937852865702e-01,-4.441521104833593414e-01
-4.160097194305633073e-01,-3.321174227683489355e-01
-3.226984242175751638e-01,-5.626048859473592456e-01
3.341822888657734747e-02,-9.924633714479796920e-01
-1.269584871897307676e-01,-8.881066706618950812e-01
2.034401999106613124e-01,-8.452401457747618085e-01
6.127431129515709118e-01,-7.763260621760427194e-01
1.057903221198991606e+00,-8.310658879322143644e-01
1.045268583807827056e+00,-2.123826661875709287e-01
8.789655423278512902e-01,-1.619372797794733088e-01
6.972346446651146445e-01,2.418295959294905831e-02
4.177549775007416422e-01,-4.186018673938683432e-01
1.230275605934169514e+00,-5.901172603158277158e-02
2.218225449417907225e+00,-1.060164577409737768e-01
5.110288471358650497e+00,6.465298092955604758e-01
8.135342214584785125e+00,1.688108188293986345e+00
1.077380625879500542e+01,2.953967364056041767e+00
1.212417524426939686e+01,3.806393723643553884e+00
1.111452235599136529e+01,3.762128430097821052e+00
1.159593138953268543e+01,4.470338122175243178e+00
1.237815018812204571e+01,5.246628247052610661e+00
1.438785483954571731e+01,6.396584555880985512e+00
1.338474180333540886e+01,6.071213570894419043e+00
1.059462985568303672e+01,4.891215425674452000e+00
6.240166980385094320e+00,2.897335435299077222e+00
2.512856413071587802e+00,1.624200289395498098e+00
-5.406021194031801480e-01,6.217768023656501386e-01
-7.314435683968288915e-01,7.453895247035926541e-01
-1.060927139507504613e+00,3.004809865634931465e-01
-5.372678842851343894e-01,-7.245753052798498128e-02
-1.015838741871055162e-01,3.784924203619020877e-02
3.173226163421028478e-01,1.363214673096790897e-01
2.463268963789235766e-01,6.969714087917530110e-01
1.298863823882208113e-01,6.273281098241721976e-01
1.916840630934125433e-01,4.707974880858027955e-01
2.538463693880008143e-01,-6.701956716640164458e-02
6.925788342547382070e-01,-5.194079531023013674e-01
8.808455270656296854e-01,-9.215281459569473199e-01
1.258964858401756315e+00,-8.729030739261268712e-01
1.258964858401756315e+00,-8.729030739261268712e-01
1.258964858401756315e+00,-8.729030739261268712e-01
1.047679185499368559e+00,-8.322329943838367994e-01
8.294246920731662698e-01,-7.692911612524915288e-01
5.810068760195857829e-01,-4.786577600248105857e-01
2.800914288320003886e-01,-2.141486453494991504e-01
2.334580255540282534e-01,-4.256875803081981019e-02
2.018677966976965832e-01,1.279353720123469484e-01
-9.436637748623345062e-03,3.133385300842292387e-01
-4.448567544798499585e-01,2.753515274941866764e-01
-5.625167648139990373e-01,6.737384270550603182e-02
-9.004589463354905066e-01,-3.403859768633472893e-02
-1.243808841910898355e+00,1.692709280432445340e-01
-1.991064400955819602e+00,4.999395756627207921e-01
-2.390980583786847191e+00,7.495971666444225523e-01
-2.404000319751693038e+00,9.232229923332483379e-01
-1.777846982021826561e+00,9.976882637502779705e-01
-1.319342724807398559e+00,1.001471875414071899e+00
-2.078090427817391173e-01,8.859997560351181578e-01
4.199943821829667245e-02,2.995170859830699750e-01
4.979439411816213856e-01,-3.961865311614765628e-01
5.177809498158630896e-01,-1.231159846787331258e+00
1.121539914205236244e+00,-1.405809610554044520e+00
1.582279748895604632e+00,-1.580727146044575981e+00
1.495132896020260560e+00,-1.594685323705989033e+00
8.494928744657845865e-01,-1.382563153104485743e+00
1.056736491994738070e-01,-7.591043770702047278e-01
-5.072583666018731785e-01,-6.533889065765419168e-01
-4.780658947701171280e-01,-6.838065281728389344e-01
-4.255499555353122743e-01,-1.232458948937342758e+00
-1.863312089538841088e-01,-9.712738637140971854e-01
-2.584619068060050595e-01,-1.281462721461728460e+00
-4.401995291340392302e-02,-1.617170600799811897e+00
-3.559290739053829616e-02,-2.038170919122556768e+00
-6.009321702698532802e-02,-2.338605729400581978e+00
-2.892216327118045105e-01,-1.886917934129647589e+00
-5.100958942367057602e-01,-1.263192207768806918e+00
-5.814444412677892693e-01,-3.356300037707403150e-01
-6.266773374675597141e-01,2.810231251584279777e-01
-3.837077293363901909e-01,7.023684750694522139e-01
-2.921872050008097466e-01,7.787511965033651062e-01
-3.320188761547602230e-01,7.323521645790277423e-01
-6.874365163262420308e-01,6.983880358241721931e-01
-7.281613056579225862e-01,5.108612234825543608e-01
-1.164389071602838444e+00,7.161832809728833071e-01
-1.451601697080186160e+00,9.408835185646984289e-01
-1.597536304118385875e+00,1.338282986891869086e+00
-1.597536304118385875e+00,1.338282986891869086e+00
-1.191505167761590211e+00,9.324034174223004845e-01
-7.283075433035429702e-01,3.151434945887892081e-01
3.892150478147525794e-01,-7.927269799857225019e-01
1.527351838103220727e+00,-2.254803247510831277e+00
2.777190707664354719e+00,-3.691567186990220240e+00
2.868690106680410246e+00,-4.515796363982273576e+00
2.615574104470728578e+00,-5.013478185961514733e+00
1.474605204198004671e+00,-4.755497693301305340e+00
1.331630741337582746e+00,-4.719091230426445627e+00
1.186690769891977082e+00,-4.494988057451569041e+00
8.594493125659827815e-01,-3.447682447932871597e+00
4.391779917506966613e-01,-2.179539423933846809e+00
-1.221642800128859147e-01,-1.081374828432526858e+00
-2.119397163017792129e-01,-9.143530073919902135e-01
-1.529623531274201531e-01,-9.720968924407863421e-01
-9.656747560022707622e-02,-6.675399211332807559e-01
-1.092979513286479326e-01,-4.062814613009804732e-01
8.530377598589568289e-02,-2.640378469016477769e-01
2.355023406511998763e-01,-1.413721467853446545e-01
4.626730281485185725e-01,-2.976723988591650216e-01
5.582769330704702160e-01,-5.222692112580662460e-01
5.151584604140330148e-01,-8.346139116702113725e-01
3.943997882823031542e-01,-9.024729826472597249e-01
2.112457779958256399e-01,-9.485174386418323556e-01
5.502099142112380076e-02,-1.035864806632352364e+00
-3.336925785473786599e-01,-1.272556714363615171e+00
-6.674348557102054436e-01,-1.654770896415731940e+00
-7.796173076670315227e-01,-9.237248260393080557e-01
-2.962867851811693543e-01,-8.667154299717427790e-01
1.219860033313811543e-01,-4.856591206578867448e-01
2.468296609673401032e-01,-1.062118019025346971e+00
-7.492505305411804352e-03,-1.033842550832831275e+00
-1.065443423439341314e-01,-8.168235208653761292e-01
-4.419869815384032119e-01,-6.353665788987198360e-01
-5.984198271853667928e-01,-3.108687212830241187e-01
-6.667382764131043471e-01,7.757410440251834294e-02
-3.672133390924487983e-01,-4.161903021231544431e-01
-5.211252222296292036e-01,-9.259897650037640648e-01
-1.042439380238443736e+00,-9.764189671443543883e-01
-1.331745564095077050e+00,-4.995000920282871015e-01
-1.207745397413059196e+00,1.055367664840076991e-01
-7.173679347330218503e-01,1.724731011499663069e-01
-1.934458689346904570e-01,3.598255942304914301e-01
2.726638381069118600e-01,5.603260323926361197e-01
3.166895012503873619e-01,6.392414505534260716e-01
2.492604866863316060e-01,4.503666921015655467e-01
1.111343202466026081e-01,4.184296904476229595e-01
8.858319461948933882e-02,2.169439314907599115e-01
-5.247818070482773711e-01,3.157478202659990130e-01
-1.008258505500253532e+00,1.930914551228345155e-01
-2.142388764310337201e+00,8.701780012443556256e-01
-2.841717772509763762e+00,1.243965441289246687e+00
-3.066748716760312465e+00,1.663749899553621070e+00
-2.580272024129265596e+00,1.582224400405504383e+00
-1.611171765971747272e+00,1.333344676749777413e+00
-9.117516928278859289e-01,1.059996338397340754e+00
6.069737631434571901e-01,1.012838387417011710e+00
1.243506333131473518e+00,1.101030266672899716e+00
1.368817366584546225e+00,1.508057624221544879e+00
6.069361785556907085e-01,1.429069511869294429e+00
3.121196052307542157e-01,1.119654693089552344e+00
-2.602142538948920003e-01,7.423440847657636343e-01
-6.964892691434318994e-01,6.770633833838557436e-01
-1.010094696934928704e+00,9.868994901809760023e-01
-1.140347745406295576e+00,9.464245421124166668e-01
-9.558315203834996110e-01,5.448449110479881563e-01
-9.421548323593823548e-01,4.606823971870742662e-01
-1.340771449877018240e+00,4.784578169995194474e-01
-2.031251471091921612e+00,8.112501234275443229e-01
-2.645479796926236915e+00,6.394265077336035441e-01
-2.287271795460940282e+00,4.094464120693478981e-01
-2.213754773592304659e+00,1.354145849192739115e-01
-1.917401411719755977e+00,1.478708324080970846e-02
-2.175220357161476326e+00,-2.581517917811072121e-02
-1.823714725613398979e+00,3.552040218669683669e-01
-1.519745737264724506e+00,1.062064116107348077e+00
-1.500946884931192216e+00,2.190275411214771761e+00
-1.678198154267904973e+00,2.750310473624776542e+00
-1.617470141416484042e+00,3.034192845790359083e+00
-1.215433456495487841e+00,2.319344640771320520e+00
-4.976691233896896049e-01,2.451345983718359989e+00
1.727968263186287490e-01,2.788313461972144136e+00
4.356175045404871993e-01,3.785436421089203307e+00
5.008216036441083263e-01,3.398720210681818177e+00
-3.149491879454179855e-01,3.139709368417275659e+00
-1.190180795349436549e+00,2.296456613047378248e+00
-1.999856751562967272e+00,1.787410534280051033e+00
-1.932997798914492860e+00,5.059552720343430954e-01
-1.575008306319124030e+00,-2.699375023035470167e-01
-8.652805209500296080e-01,-4.584249154162609585e-01
-4.836425302248174574e-01,-2.439605127229450277e-01
-1.246385016868796769e-01,-4.296198617841102685e-01
-8.948025821467793517e-02,-8.801872762893497848e-01
-6.872930995281762573e-03,-9.277316831343083159e-01
3.636599858128782836e-01,-1.128815033641684229e+00
2.766235761498068713e-01,-1.178731873350192583e+00
7.686629093682612046e-02,-8.608081162695103705e-01
-1.941693795830333469e-01,-1.053862912676585051e+00
-2.153927022750812270e-01,-1.388303388452875042e+00
-3.844012254005953477e-01,-1.794599541556855637e+00
-7.355127102140691653e-01,-2.020393715083973252e+00
-1.121062128412833703e+00,-1.775829237423856233e+00
-1.085606218648679899e+00,-1.323810129884206876e+00
-9.165734885098842932e-01,-6.894031438113924493e-01
-4.801165306004182010e-01,-3.925046461081996840e-01
-9.191598958540159181e-03,-5.294099011348032402e-01
4.298474201948442042e-02,-8.263263175885091627e-01
1.324697924168480138e-02,-5.920637358089804181e-01
-4.097109233261501671e-01,-4.574201460595171964e-01
-2.563290966196318799e-01,5.712956743029392465e-02
8.953955963507413685e-02,-1.854328952166024447e-01
2.335002698140465072e-01,5.721894592045121547e-02
3.187241357046733392e-01,5.771874947246701665e-02
9.077020464790287735e-02,1.832349443151430057e-01
1.439548454113282749e-01,7.637605729566673829e-02
3.049223516913014409e-01,8.401243881623041143e-02
5.015276965897749184e-01,-8.976662757988168595e-02
6.950449134004568208e-01,1.330619742881654875e-02
5.567274599545212199e-01,2.694736591442011275e-01
5.286853106265277935e-01,8.759268471635444087e-01
1.119249409516281935e-01,1.565122874582563162e+00
-2.209633570895204180e-01,1.625387672273349349e+00
-8.105712956052681939e-01,1.811501231053404437e+00
-5.148815519890976855e-01,1.714554241921545152e+00
-5.504711091306097037e-01,1.038073017131988296e+00
-6.714873045266168960e-02,-1.250582386521470191e-01
-4.353934660066539064e-01,-1.349726298508503453e+00
-6.572528838127797979e-01,-1.332286080370662651e+00
-9.476969207122379890e-01,-1.430375880875587313e+00
-1.160556316278038791e+00,-1.550192363159924147e+00
-9.753765666613539720e-01,-1.627427035233244501e+00
-8.969566155198628321e-01,-1.715327738007310421e+00
-7.305189746576910004e-01,-1.670511362649346410e+00
-8.414911219421752353e-01,-1.797091822118396687e+00
-1.089530287327849178e+00,-1.939440380106643103e+00
-1.315267234560778764e+00,-1.932389180255511318e+00
-1.366879826335617443e+00,-1.833232824853943344e+00
-1.206663668563424441e+00,-1.589518550134203290e+00
-9.603258757986569139e-01,-1.507489653273952568e+00
-5.933481023676782096e-01,-9.983486164359968162e-01
-4.977540728873929288e-01,-1.070957519609681663e+00
-7.102629820224201987e-03,-9.675918071448734725e-01
-7.052069136219199508e-02,-1.479855352304431992e+00
4.226324225567871240e-01,-1.030487930369609506e+00
2.471627602189601092e-01,-7.526670684861138660e-01
2.471308068068328589e-01,-6.364619483109943410e-01
-3.008356021904765587e-01,-1.314383505044585565e+00
-5.168946453561767962e-01,-1.450352454143959635e+00
-6.898799218631536112e-01,-1.429928209323889865e+00
-6.512389604897210749e-01,-1.124477688694256239e+00
-4.691931312991030056e-01,-1.197958959062350726e+00
-5.249461780135108446e-01,-1.200555888822047113e+00
-6.180206345570925519e-01,-1.347762184950832776e+00
-7.717403737299297628e-01,-1.743267448747465309e+00
-9.373138352355940839e-01,-1.535140186359366998e+00
-1.150077727775635772e+00,-1.441873304515964627e+00
-1.489312375626867357e+00,-1.099155695925070786e+00
-1.526716463891942821e+00,-1.295028237967676965e+00
-1.476583282596194424e+00,-1.412345179840842624e+00
-1.199667013538890270e+00,-1.663995495034993999e+00
-1.040053054418786704e+00,-1.639125591187476694e+00
-9.298840187124556289e-01,-1.203762245269440756e+00
-7.520284123052334291e-01,-4.755373643584521748e-01
-5.261808339955739156e-01,1.032821646682093308e-01
-1.926305069754306182e-02,1.274374562435592328e-01
5.223745830422672487e-01,-2.572817793620955085e-01
8.751640399674828208e-01,-6.744914941216229032e-01
8.850014724296859647e-01,-4.507712721559629099e-01
1.766336835165097652e-01,-3.312276322706891873e-01
-6.820654575258425778e-01,-4.106825489396709328e-01
-1.616297222222412788e+00,-7.454179538231919810e-01
-2.603231568635480997e+00,-6.759638231657059126e-01
-3.234091451974247633e+00,-2.842212790296180236e-01
-3.416826427024289625e+00,5.409884181312630408e-02
-3.084607385014751291e+00,2.570412413006132879e-01
-2.203138177843759316e+00,1.646752490742945385e-01
-1.390936731168234353e+00,1.308008309067786867e-01
-6.773166768661420534e-01,1.151320691528768814e-01
-4.808319683816386636e-01,3.187409403505058192e-01
-8.608555596523616293e-02,1.439220821595977307e-01
2.049182338712096652e-01,-2.320697300653528083e-01
2.568001890219086536e-01,-7.367617676183575437e-01
1.057866535042032569e-01,-1.632420098254304230e+00
-6.553528213518580725e-02,-1.927523256663342233e+00
-2.968535913913784574e-01,-2.250450927059738593e+00
-1.393158901988945375e-01,-1.557644241115519579e+00
2.617085884086397390e-02,-2.135358728231510739e+00
4.950236291713774328e-01,-1.913215388031251463e+00
1.091605867652697182e+00,-2.008995305679326826e+00
1.610751538384847192e+00,-1.901237325609161033e+00
1.964743898072520700e+00,-1.920908765788120309e+00
1.848705758460934323e+00,-1.515181364151038768e+00
1.503184561764285831e+00,-1.190774718604816540e+00
1.019299592995035031e+00,-1.039335910901218574e+00
6.022096410891323304e-01,-1.276659858673392822e+00
2.237422061806228768e-01,-1.281967699786340953e+00
-2.134244731543676055e-02,-1.035253916738189117e+00
-2.815596417559756426e-01,-8.214149680798076281e-01
-3.275560694875809808e-01,-6.604374292626272736e-01
-2.298063729382830989e-01,-7.857026685657235721e-01
-7.851316136677484459e-02,-4.843767264833060415e-01
-2.817056736283437557e-01,-3.307544168428964149e-01
-3.658157656113028011e-01,1.620644689042801956e-01
-2.819055981574786762e-01,1.513542773779444871e-02
1.410835276277069839e-02,-1.378444594309463089e-01
3.423925008865218861e-02,-6.220738045253875192e-01
3.341822888657734747e-02,-9.924633714479796920e-01
-1.106137020161792744e-01,-8.577461813831621651e-01
-3.789459219085649644e-01,-5.857726651710031263e-01
-3.796911510121480093e-01,-8.146523369887301302e-02
-4.288002064855255813e-01,1.611389321588282270e-02
-2.387286440866409620e-01,2.076543511590947244e-01
-5.585144400469926884e-01,-1.170616521505518128e-02
-8.988130748322208374e-01,-2.069502045633134502e-01
-1.197172324674926847e+00,-2.226088674351798802e-01
-1.432998673921953126e+00,-7.567799056824058013e-02
-1.082192814254733459e+00,1.885517778910855979e-01
-1.182774934441627845e+00,2.848981373290326302e-01
-1.556860830189681133e+00,1.769885368552780724e-01
-1.919754371518565206e+00,2.330044101651221611e-01
-2.132012435146051210e+00,2.351726110117007551e-01
-2.092746094144458002e+00,4.040181330200037224e-01
-1.610485986805638925e+00,6.213447492669994521e-01
-8.032362865162262500e-01,9.556966725339164359e-01
-3.449674581200121715e-01,9.869394786011596032e-01
8.440014169023356272e-02,1.011256687194888704e+00
