-2.614116134385326418e-01,-7.113390295655768192e-01
-1.313202997337519218e-01,-3.097550964221078007e-01
-3.553712477307131856e-02,2.369470360833619837e-02
1.659333460569335783e-01,-2.769910351832959861e-01
1.884465395504129337e-01,-2.940505751956128400e-01
4.874536915733655197e-03,-7.936589683064242118e-02
-2.992165802395369556e-01,-3.172684713690005487e-01
-7.050322501953668608e-01,-7.069841642802429105e-01
-1.510067947713010117e+00,-2.158685227772551229e+00
-2.427503854717426801e+00,-3.944472459368435491e+00
-3.125099564313550626e+00,-4.780228330089167699e+00
-3.248230432665498491e+00,-4.658594764215540529e+00
-2.672519137960494007e+00,-3.879690891485071624e+00
-1.653363076076509675e+00,-2.685910276567366584e+00
-5.379375837211726186e-01,-1.279140883536931117e+00
2.911672553983312706e-01,3.441006125778379166e-01
7.222813047470149073e-01,1.343020980363687222e+00
9.351399157652331429e-01,1.530117306069791017e+00
9.728079291840343590e-01,1.281421414409139370e+00
1.272761786007997387e+00,1.567220874882205628e+00
1.922052055614462684e+00,1.939533611463048368e+00
2.990482747916197948e+00,1.191414943292996131e+00
3.568615613740918402e+00,1.003335695408901912e-01
2.984204872832334932e+00,-2.037321167265644384e-01
2.165363377737064887e+00,1.282044673301886151e-01
1.696187751735392490e+00,4.056832285013823314e-01
9.235664535949713594e-01,3.444338971022941620e-01
2.422882264851556056e-01,1.418526176828117935e-02
-1.875194029358200898e-01,-5.326825606800640323e-01
-8.577794519301336351e-02,-1.108012706042163398e+00
4.246559072632196674e-01,-1.144835211799216657e+00
5.452875975779509776e-01,-9.145668873198454785e-01
7.022634490485268888e-01,3.988730655679253445e-01
5.160663998441751277e-01,1.166411831442244695e+00
-1.744249099232805522e-01,1.330924775887283584e-01
-5.587691041871163389e-01,-7.545458333323767919e-01
-1.929350043326296879e-02,-9.643056119996912257e-01
8.236329536757744929e-01,-9.175418832424179216e-01
1.493868211669040269e+00,-8.343184270282436588e-01
1.449070856107513405e+00,-8.239168311904117026e-01
6.161426283118116576e-01,-1.117048257500526054e+00
-2.711561175648220454e-02,-1.353036284211751150e+00
-6.583598193929873776e-01,-1.275386068331862965e+00
-7.823001238339686303e-01,-1.053003575271022285e+00
-1.416494752152191117e+00,-7.867514875195731339e-01
-1.124256277778664215e+00,-3.253856009007173866e-01
4.339649308854131027e-01,4.171289181533069379e-02
1.081049052199419824e+00,3.837478530480360472e-01
7.709359920961090795e-01,3.960913559831277797e-01
4.867484683865350159e-01,3.742640126516046939e-01
4.867484683865350159e-01,3.742640126516046939e-01
6.403370411188367139e-01,4.885847270280528898e-01
7.540339881762263552e-01,6.515724911158821131e-01
6.198912394297081407e-01,4.567880935422489186e-01
3.014462494355494293e-01,2.298743367157922157e-01
4.978577253946323000e-01,5.273065531755688484e-01
1.249580316411257108e+00,1.388231555240663440e+00
2.127090994682334202e+00,2.335657180915085007e+00
3.038924191857093504e+00,2.642294446970364419e+00
3.508774923110022481e+00,2.247215775219143730e+00
2.863799839123357227e+00,1.410247166142549080e+00
1.147000224524828971e+00,4.763799322657763513e-01
3.386794788580030358e-02,-1.517872764262565566e-01
1.608130222533375175e-01,-1.423112429460401118e-01
3.536780427784649850e-01,1.445767028791673792e-01
4.445499083536604279e-01,1.521823811183482811e-01
3.298109044771335707e-01,1.022764899268791966e-01
4.663314446711884220e-01,3.467191384834122370e-01
3.078634117725062569e-01,5.198652178754342712e-01
8.496355005846248365e-02,4.545208451561380536e-01
3.330192576860435683e-01,3.371222138541391522e-01
2.412087624434444133e-01,1.895580296534787323e-01
2.515340891441457116e-01,4.754527416711926691e-01
1.035660054318153334e+00,6.097077685018490456e-01
1.030859707576870843e+00,6.689163713632437780e-01
1.517838646693557558e-01,1.465092384124016656e+00
-1.231792940360440791e-01,1.816461773846338446e+00
3.621147903402618939e-02,1.354734463401233269e+00
2.977892754287109200e-01,5.481129351210762835e-01
7.306001725162519778e-02,8.170142552672008396e-01
-2.557271596953625714e+00,2.597326370942348639e+00
-5.925197091683574335e+00,4.004105855718601781e+00
-7.326948290773220407e+00,4.037410939441100410e+00
-5.790867759312765095e+00,2.530776314012106898e+00
-2.790196660381468075e+00,4.008439635834208370e-01
-1.409021664773813243e-01,-8.313204669994740392e-01
3.083809752543628657e-01,-9.059567998570920988e-01
2.653900864021578321e-01,-1.093646453346401648e+00
5.247204893168223583e-01,-8.299812267185129322e-01
7.043706114221853776e-01,-6.847868504535628009e-01
8.480959565986418980e-01,-8.655704051904333785e-01
5.333982638028971213e-01,-1.197906724251574184e+00
-3.344936172733251056e-02,-1.342558948613020053e+00
-2.595416235541938010e-01,-1.041430195042613027e+00
-3.780711416129238223e-01,-8.719421600075297762e-01
-5.157583416351875227e-01,-1.326681491987221628e+00
-3.346182889616176603e-01,-1.207919925063734468e+00
-1.432962514864250525e-01,-9.560218502315902533e-01
-1.159015494992050518e-02,-1.196187062161356840e+00
4.465650666147419345e-01,-1.025256463830984677e+00
1.423632363273730217e+00,-1.860427675841910711e+00
1.813051950180919025e+00,-2.988545655302174531e+00
8.925665881502867771e-01,-2.630456485792383337e+00
-7.730466691739106277e-01,-2.622538049739507215e+00
-1.827288802791884326e+00,-3.384633512315706305e+00
-1.981175971964966420e+00,-3.051125799122217153e+00
-1.099590269554801658e+00,-1.579271979733548159e+00
4.083724688218632465e-02,-1.154231080940758963e-01
7.243419859108241043e-01,5.140241499635517242e-01
1.142407150135071214e+00,9.172862415955040927e-01
1.270195066389598892e+00,1.072078911955049563e+00
1.337468068617042316e-01,1.278231764512221202e+00
-8.414295719341023938e-01,1.195942414497394024e+00
-7.051878433233675914e-01,5.744483854457460570e-01
-5.173641778982766837e-02,1.479441853632254555e-01
9.861850763928918795e-01,1.984129482146231305e-01
1.441424638682047954e+00,6.975381714751898166e-01
1.310724617477006415e+00,8.889857061999866250e-01
1.594334498003180167e+00,6.838176246236976619e-01
1.820031833485947992e+00,3.966128359746092791e-01
1.363262546188887869e+00,1.833796299492531853e-02
1.275771874162956676e+00,-5.477070228030254118e-01
1.315681779524870754e+00,-9.996892590254455868e-01
1.255933748090026780e+00,-7.778081270894613430e-01
1.276824338963998162e+00,-6.215879062244185349e-02
1.400059618847445453e+00,5.453427485255165630e-01
1.366095909764371896e+00,7.784712772685646875e-01
9.246174444600400166e-01,8.163691151694980608e-01
6.327829578646745334e-01,8.727773704342441929e-01
5.406767033681231238e-01,7.262483893759017484e-01
1.104325110985226316e-01,6.667820253410740305e-02
-4.338519558637947693e-01,-1.134987155045918739e+00
-9.176481786233523508e-01,-2.038631959872408306e+00
-1.080767370780643333e+00,-2.166357411986274517e+00
-6.746942995131405274e-01,-1.805218570679974821e+00
-2.513540788707105955e-01,-1.821900239281116329e+00
1.678703178498969772e-01,-1.307845135825711935e+00
4.155952975833134833e-01,-2.900096998554966277e-01
5.092071789699292861e-01,2.761096994121766124e-01
3.527061478283992635e-01,2.703087661997577440e-01
-4.261005484404952193e-01,1.077639615195027156e+00
-1.192144752778642403e+00,2.196947782476940336e+00
-9.587951296303419690e-01,2.869326296697473300e+00
-3.888438318137396044e-01,1.429277094048139185e+00
5.936413664965740633e-01,-7.122035214909918643e-01
1.276248099082140985e+00,-1.408798239586899426e+00
7.431109666313937545e-01,-1.513091208519884212e+00
2.782064456426058263e-01,-2.152023107098189891e-01
1.205737723286271074e-01,7.844117725154303722e-01
-1.129009382732686778e-01,1.335936154789095553e+00
2.410720627609638234e-01,1.904720931759837921e+00
9.220060918197360289e-01,2.375844801637842174e+00
1.396947386279570935e+00,2.189106282050004015e+00
1.414963649776699528e+00,1.176633268116663578e+00
9.333128521070824801e-01,1.127297993956027922e-01
8.216173562430458821e-01,3.923874705940414431e-01
3.992882713174122217e-02,8.369435360806443125e-01
-1.362437817038228305e+00,2.422264886283921337e-01
-1.473395588262248923e+00,-4.110571360289862475e-01
-4.066171159250003830e-01,-3.829967855826977852e-01
5.540721865454993900e-01,-2.994118145727872604e-01
6.116081944834493855e-01,-4.980847168995877206e-01
6.505262957060602425e-01,-1.211808141943514633e-01
4.224468990255976220e-01,2.143765544452579386e-01
6.496864819637272470e-01,-3.394736987142716461e-02
1.282515369568264507e+00,5.386245746609794049e-02
1.474746368970915045e+00,1.322619147486776559e-01
1.123758537498112275e+00,1.789721052129843388e-03
2.447056801488260991e-01,9.068349288581764589e-02
-5.756730567482399863e-01,-7.756882447610918829e-01
-6.247103668619116146e-01,-1.979986132116748232e+00
-1.404562858209959242e-01,-1.862278858593066744e+00
4.854522249804645306e-01,-3.725790399356913585e-01
8.048121023285758069e-01,1.847807717015876650e+00
3.332030014355759628e-01,3.500928260447746077e+00
-9.051036447360243375e-01,4.313375061340267713e+00
-1.591843408282972883e+00,3.868838349843189306e+00
-1.079850574749202874e+00,2.567896855125289424e+00
-7.300408020457402336e-02,2.104612269730897545e+00
6.711256418014032166e-01,1.625473489581491959e+00
6.546872767344898980e-01,5.273245784674348569e-01
3.641792203524255034e-01,3.738099862269965712e-01
1.522875237459682396e-01,4.490505485595349677e-01
-1.228170154324804419e-01,5.864785941998671426e-01
-6.384599164577461905e-02,4.325387560734078596e-01
1.226120483766478392e-01,-5.213845654131752522e-02
2.576589005940110866e-01,4.393208467858172872e-02
5.417699993908059453e-01,4.795709126691486412e-01
4.490211496268069480e-01,-4.249873069651416944e-03
1.740801185405315143e-01,1.791438073873417303e-01
2.487664391620628690e-01,6.636605340873935610e-01
5.957422512725276675e-01,1.127445103477168753e-01
9.815500883191640158e-01,-6.609509479743209681e-01
2.694434211040821925e+00,-2.724794095898217527e+00
4.776966585882316707e+00,-4.996665298802676958e+00
5.407426790333651923e+00,-5.912976003260856928e+00
4.071343150072851635e+00,-4.725284520210981221e+00
1.759716236896391672e+00,-2.153264501448709733e+00
2.435446456091582557e-01,1.338401813421287168e-01
-4.699221376938585853e-02,1.248777816643623195e+00
-5.528152296642514785e-02,1.438828377373654543e+00
2.383310826572982155e-01,9.519714612410363763e-01
7.243419859108241043e-01,5.140241499635517242e-01
4.373138445393092155e-01,1.055041097938601569e-01
-8.580581561064586360e-01,-5.384182667384795895e-01
-2.173624876627110236e+00,-5.296828369774392309e-01
-3.027249326040855060e+00,-3.886150687407789461e-01
-2.611761802379904740e+00,-1.324057522167064183e-01
-1.221865278099341312e+00,-3.625330367009541727e-02
-1.093070320808264134e-01,3.583681104114449373e-02
2.962561050251898975e-01,2.516807654119295745e-01
6.537079743936845544e-01,4.518774597803323911e-01
4.037377786934966961e-01,1.415738888180599342e-01
-5.754720970124746482e-02,-2.837015566499169195e-01
-1.922943081774090845e-01,-1.098040233718109576e-01
1.885583885471871501e-01,5.974031610318663033e-01
1.003760451170000456e+00,2.006324523170626151e+00
1.476273188072845022e+00,3.167270437391697779e+00
1.001541237163428244e+00,3.017436753499320723e+00
2.857799451145682790e-01,2.256703861778349474e+00
2.049930056934005373e-01,1.647118062605160915e+00
4.941430935962559112e-01,8.957947677536899356e-01
1.595969881354893649e-01,5.459167574580097160e-01
-4.380350943289678112e-01,3.718474410753683790e-01
-5.742385449960419885e-01,-3.846292396093149435e-01
-4.013584611095504240e-01,-9.156116018397546519e-01
-1.647745612655018843e-01,-6.567625168011593795e-01
1.815275314287922437e-01,-2.644396130936187972e-01
7.306001725162519778e-02,8.170142552672008396e-01
2.839960460048754007e-02,1.420514116799986404e+00
1.774819291650055753e-01,1.148778173726322738e+00
7.868439037792822610e-01,1.012692793240375311e+00
1.417159180862745949e+00,8.507564028880471030e-01
1.093182302697156105e+00,5.256184395488984196e-01
5.808870661084302167e-01,2.729610443808457854e-01
7.918286137173676797e-01,4.961688869610721975e-01
1.213180110138313283e+00,9.660316569708714551e-01
1.254901864306275483e+00,9.636118267444907515e-01
6.636987867550135922e-01,4.626066145129337781e-01
1.068642138988218915e-01,-5.045340213645982397e-01
2.342096790363555892e-01,-1.222294019615498328e+00
4.271165071411677783e-01,-1.022524335838295162e+00
4.753036186702584986e-01,-3.942209704576898344e-01
4.130719465691921610e-01,1.858619712469140317e-01
8.966355241332208958e-01,7.989716827519710574e-01
1.417159180862745949e+00,8.507564028880471030e-01
1.139250798902949224e+00,-1.336056689142471054e-01
5.385025019664937407e-01,-9.694433824626105256e-01
1.633417146658194818e-01,-8.209693485265464608e-01
1.611871199244840902e-01,-2.879166127695652611e-01
-1.859519060272485924e-01,4.658032824955161688e-01
-1.859519060272485924e-01,4.658032824955161688e-01
2.814319418165610043e-01,3.523344463003942328e-01
3.847789543759477238e-01,1.929557420748786167e-01
6.241695201199320281e-02,-3.320419714377820797e-01
-1.805001503768188242e-01,-3.226349976378745654e-01
-1.627888333241035990e-01,-4.032434296210283264e-01
-1.976146822274053860e-01,-3.697641643096759023e-01
3.219105808583317963e-01,1.641572164971611125e-01
8.147797983098009622e-01,5.285364618309530416e-01
1.658844546859791769e-01,-2.364597932189411444e-01
-6.488148678859221308e-01,-1.382182975730149588e+00
-1.121669486227114154e+00,-1.724753601618833176e+00
-1.102578987001930244e+00,-8.259324627961767140e-01
-6.198183813871295245e-01,9.925380999758058598e-03
-8.065496865583865471e-02,2.698280818281419968e-01
-1.200533900371060364e-01,7.446242474627446928e-01
-1.960176731193906396e-01,1.284762932162929250e+00
3.956074405433586683e-01,1.527688339548575858e+00
1.039911560383592448e+00,1.438677043418071122e+00
1.247784095728278420e+00,1.104076383534938088e+00
1.141670271996597874e+00,1.092362045916414059e+00
1.039911560383592448e+00,1.438677043418071122e+00
1.021494235227961456e+00,1.239130070532164174e+00
9.066795762918663515e-01,8.447048909652957738e-01
7.015082399532952540e-01,5.738527190748420326e-01
7.015082399532952540e-01,5.738527190748420326e-01
2.519837582502589157e+00,1.587392468691346314e+00
5.385016594131056600e+00,3.215831964343961680e+00
7.331955178538454909e+00,4.400143588854907861e+00
7.331955178538454909e+00,4.400143588854907861e+00
5.872571344971767360e+00,2.711391835244569393e+00
3.266101827181601802e+00,4.831337392296987110e-01
6.936475052522158569e-01,-6.127073506611735443e-01
-5.352983506537464242e-01,-1.151951448529664912e+00
-1.441601650027264092e-01,-1.338828651259085234e+00
-5.327016564490114625e-01,-5.633800204350712937e-01
-1.111237010245678558e+00,-8.201093787235866350e-02
-5.459991009094793402e-01,-2.723367657582778101e-01
-3.237680451919832531e-02,-1.316433170289331933e+00
6.234731026165042378e-01,-1.610916412295663847e+00
6.209307173802244284e-01,-8.795242268035620148e-01
-4.016149548522936208e-02,-6.090864673662444995e-01
-3.765193164327129693e-02,-6.092401732765326816e-01
2.294179325349499088e-01,-8.223583409640762287e-01
3.053309803004439216e-01,-1.102988163226903406e+00
6.494641388056974218e-01,-1.364175396744822868e-02
1.484664563212259480e+00,1.090219062403360528e+00
2.133619892670889584e+00,1.602594359165956606e+00
1.899232019751182055e+00,1.991292908685266649e+00
1.045668121160062913e+00,1.742000205137544722e+00
4.318627306036793012e-01,1.495878112030193829e+00
3.441712727481266616e-03,1.521358996869721647e+00
2.144697808411968332e-01,4.269994467737699417e-01
6.465418701665142098e-01,-1.200258177968111628e+00
6.321247645701376650e-01,-1.739254975029625339e+00
4.913988651962877818e-01,-1.468683479944926873e+00
1.232597001346285998e-01,-8.202606898855359097e-01
-1.156546411702645605e+00,-2.081948102294201852e-01
-2.413782691382112766e+00,7.559618725470368394e-01
-1.946621528317709293e+00,9.624205353448566092e-01
-8.190898896261040729e-01,3.417795763716402480e-01
3.031083404859639119e-01,7.306359590422819572e-01
7.498652917676356111e-01,1.401100932493201778e+00
1.222686637636008378e+00,1.896225832322935068e+00
1.045668121160062913e+00,1.742000205137544722e+00
1.405707429851611456e-01,6.490225925068501267e-01
-6.100837080722849581e-01,-3.419228567939336938e-01
-4.374605190451679726e-01,-8.127056927270458475e-01
-8.973466493395650112e-02,-7.870180072510611913e-01
-1.805001503768188242e-01,-3.226349976378745654e-01
-1.505390693902381172e-01,5.209811124522093495e-01
-2.499394534838800253e-01,1.105173778774569904e+00
-1.085315317340716651e-01,1.709372813142809866e+00
2.049930056934005373e-01,1.647118062605160915e+00
4.923674375296390737e-01,1.334992812263030348e+00
3.931332640331141048e-01,5.490800218226187246e-01
6.976103322882643010e-01,-1.187703066892416282e-01
1.596206358453344798e+00,2.990591652777625509e-01
2.125574338134722296e+00,3.244489784701353741e-01
1.694949940392019849e+00,5.212670850034735459e-02
4.649232978828432006e-01,-8.714295072771501005e-02
-5.732550293918224904e-01,-5.115205192613664353e-01
-9.494908684747356276e-01,-5.484053203544043686e-01
-1.105621469736691509e+00,-1.752874764281143749e-01
-9.387077293999586125e-01,-4.337337448845004495e-01
-4.381423652557826509e-01,-7.305596417316085889e-01
3.671729801297042850e-01,-4.419277446666926568e-01
1.146956861139342365e+00,2.783745986535927086e-01
1.145062441203182679e+00,1.193727501487777509e+00
8.004229771235263913e-01,1.771586947355493491e+00
4.724255872433922865e-01,1.667908092517991880e+00
3.418351872692314553e-01,8.199679865415837599e-01
3.770849252681647279e-01,-5.551143404587609576e-01
-7.091877822689071631e-02,3.958293527079799479e-02
-4.773502720068559801e-01,1.178577729618478953e+00
-4.044312667018444274e-01,1.282491217804791805e+00
6.574728480699636168e-02,8.491975487376483001e-01
4.999835150256927152e-01,1.487137342051080523e-02
3.603328600601300447e-01,-1.975872078360742246e-01
-6.430228571999442311e-01,-5.382556246214698081e-01
-7.217369049121867830e-01,-5.718812351443114395e-01
-1.672724903424309684e-01,-3.708434018648868458e-01
5.161662033709390335e-02,-3.571358770840054042e-01
1.538946486925798496e-01,-2.712401261529997498e-01
9.275434301849747043e-02,-1.104535987162867272e+00
3.131509151052568884e-01,-1.630507451200600144e+00
3.442779380237728781e-01,-1.012666859808063924e+00
-2.163056853225116816e-01,-6.517975954506123326e-01
-9.461634911328465902e-01,-7.149582742000560875e-01
-1.135357716277988427e+00,-3.300920997140073809e-01
-1.180807634158908659e+00,-1.159026683652779888e-01
-1.071330209679581369e+00,-8.593001393436223989e-02
-5.607292359365578793e-01,-3.777054086229406082e-01
2.291902744509019818e-01,-2.089246842508592494e-01
3.643705340559907357e-01,1.104037630417452176e+00
3.441712727481266616e-03,1.521358996869721647e+00
2.748963781834967701e-02,8.724708387112903862e-01
1.147904645448017263e-01,-9.780907105715484773e-02
1.978358009924146427e-02,-6.791479557246481447e-01
7.383775065245341829e-02,-8.413521910300602036e-01
7.623907843357242697e-01,-8.448713090237689460e-01
1.845005404314605135e+00,-5.292261678896943433e-01
2.390437048089089078e+00,-4.126873871961883045e-01
1.875289167897647546e+00,2.016951749700736096e-01
7.835933278960612869e-01,4.441968723959839882e-01
2.728087957622748333e-02,2.258216306743971169e-01
1.305119482060137781e-01,2.053126791493940784e-01
3.798997991478784697e-01,1.586683704240556547e-01
2.308125876915426700e-01,8.456014735967908036e-02
8.581594854453579446e-02,-1.348429050699021525e-01
3.778832380593796780e-01,8.094447528438986073e-01
7.187407930312631477e-01,1.209895119115809603e+00
9.609785330494166056e-01,-1.403323647576563138e-01
1.057078661077196058e+00,-6.456192796571605941e-01
9.162249245394877839e-01,-7.549822777183462508e-01
1.092634400778720538e+00,-7.149765951719663226e-01
8.209037197794741836e-01,-1.856708344913957642e-01
-1.634673933865163353e-02,-2.375876245283154720e-01
-1.631797213714477057e-01,-4.612450183572076035e-01
1.900260684134729150e-01,-1.129257550818787009e-01
1.517935220463073887e-01,-2.244115925496342756e-01
-1.721738272909874579e-01,-5.407700427104950025e-01
-1.232943995800872133e-01,-7.217091838662239578e-01
2.583779356422125639e-01,-7.290701833753865380e-01
6.647595739734933895e-01,-6.888691287645726247e-01
7.771658638080740644e-01,-1.940356599524164227e-01
-2.756024722263276105e-01,5.744326912233574944e-01
-1.133169815473641817e+00,4.775420110343429614e-01
-1.012768029379870871e+00,-2.522259033145150542e-01
-2.848613693108439926e-01,-5.318689792603510380e-01
-3.308793218130768321e-01,-5.082371530716970343e-01
-7.371197335868148182e-01,-1.235596786002309821e+00
-6.602919407971464816e-01,-1.548890618202517055e+00
-2.473373849127519231e-01,-1.372109997258055047e+00
4.726422353532724885e-02,-1.038857607892977208e+00
-1.479469801681061181e-01,-4.371406789651766656e-01
-1.226253219585658888e-01,3.960592161272948331e-01
-3.609725795712768193e-01,7.939069251578761977e-01
-8.903489083940396842e-01,6.301376276885929384e-01
-5.601758149708960799e-01,6.635199553415781493e-01
3.000790639961463113e-01,8.077319315926030363e-01
3.183256219416258359e-01,6.300910658086789073e-01
-3.465830574046606660e-01,2.471283964419206669e-01
-9.195099426352784100e-01,-3.484573209420727125e-01
-5.945366206145221710e-01,-6.654552373210187444e-01
-1.602215273752017610e-01,-8.203977611899200273e-01
-1.293101659573592799e-01,-8.249783777606338742e-01
-3.780711416129238223e-01,-8.719421600075297762e-01
-9.109875437945759158e-01,-1.771897957148233615e+00
-2.101984436540624390e+00,-2.884569227168538585e+00
-3.491235508926112452e+00,-3.284468561330977199e+00
-4.348988531710666017e+00,-2.843878162965835177e+00
-4.855447050286077371e+00,-2.462761128502291452e+00
-4.855447050286077371e+00,-2.462761128502291452e+00
-2.935940663001004314e+00,-1.316702856572268932e+00
-1.103005356737098541e+00,-2.799025098014293889e-01
-7.382760631419776898e-01,-4.189803789746469054e-01
-5.396935578529112876e-01,-4.922046924888243136e-01
-5.945366206145221710e-01,-6.654552373210187444e-01
-2.149178784708558054e-01,-7.188600836539071892e-01
-2.149178784708558054e-01,-7.188600836539071892e-01
-2.969324739257984125e-01,-7.068224630755896021e-01
6.714790774987242084e-02,-2.931560190237650909e-01
7.731181905088650996e-01,1.825361287786893272e-01
1.577601513868940764e+00,1.748701337301444836e-01
2.145633242040226207e+00,-2.063060067484028259e-01
2.390437048089089078e+00,-4.126873871961883045e-01
2.296094465449420863e+00,-1.549697311510620304e-02
2.050696429282532041e+00,7.398325682685890081e-01
1.832814960962637407e+00,1.246374732605430413e+00
1.832814960962637407e+00,1.246374732605430413e+00
8.688941333002144773e-01,8.651530030571347174e-01
-5.718710894806003919e-01,2.208772403204019019e-01
-1.842546318490295931e+00,2.865943519520793292e-01
-2.201637375680774333e+00,2.100560442413858642e+00
-1.460685930460960735e+00,4.228796099021925770e+00
-3.130128724073988344e-01,4.977649422854292460e+00
6.275863122958674767e-01,3.852232625610125805e+00
7.923740742431982786e-01,1.627403560869803867e+00
3.169500497081669255e-01,-1.526526028704497107e-01
-3.285924188894551179e-02,-7.918839260009808978e-01
4.425886509015434372e-02,-9.621532161796259031e-01
-1.566967941420869259e-01,-7.984673618702643472e-01
4.083724688218632465e-02,-1.154231080940758963e-01
7.037309017688221369e-01,-2.597850194604428009e-01
6.696684491225858293e-01,-4.635018004293964822e-01
5.675886282340787403e-01,9.605676854066305670e-02
7.317503416550144579e-02,-2.954684065571865081e-02
-4.846409942637407431e-01,-3.000139492495641491e-01
-6.940947997858520901e-01,1.382113841759453378e-02
-1.435611461182519033e+00,8.534276692155766675e-01
-2.410995981776375086e+00,1.276253256878902897e+00
-2.599235231779370991e+00,1.010398503282148086e+00
-2.876462647403451367e+00,1.023838174011915680e-01
-3.350111705023380182e+00,-7.488007333375975572e-01
-3.561788209729765953e+00,-8.442786960453674272e-01
-4.178140160717976670e+00,-2.829822161745015330e-01
-2.891813771292892632e+00,3.601559842564814873e-01
-6.175761046211272198e-01,3.124352924330177639e-01
-1.314850649835292984e-01,3.914772363963895385e-01
-9.723675616383069265e-02,4.608943505136998686e-01
4.020636844866268822e-01,-3.386817081096122339e-01
6.696684491225858293e-01,-4.635018004293964822e-01
1.455104886375668261e-01,-3.051127863049737376e-01
-1.805001503768188242e-01,-3.226349976378745654e-01
5.754608297409529172e-01,-1.010592497133853546e-01
1.544282743663464963e+00,-2.973609024893058006e-01
2.390437048089089078e+00,-4.126873871961883045e-01
1.483766439521996272e+00,-4.523022757882174671e-01
4.015933100031931491e-01,-3.908130720379155987e-01
-4.111024120375820351e-02,-3.667813202712275067e-01
3.869410134779375787e-01,-6.494252482012565775e-01
6.546368753554314690e-01,-6.589499782842626052e-01
4.015933100031931491e-01,-3.908130720379155987e-01
-2.662722875661621691e-01,-7.604734015307484940e-01
-6.281073447272703669e-01,-8.424062143985469042e-01
-1.230784869639117263e+00,-5.124768369580664507e-01
-2.591603784444878489e+00,-7.963472729738937383e-01
-3.801731660797160295e+00,-1.354633564564903692e+00
-3.833939494878928045e+00,-1.340155695150242465e+00
-1.983394532811573185e+00,-8.114298269489473858e-01
-1.805001503768188242e-01,-3.226349976378745654e-01
-4.957188144753168491e-01,-5.785882174905199182e-01
-4.685264670883854121e-01,-4.907302132724472576e-01
-1.789711993861686223e-01,-1.087244483599864725e-02
-3.612606786652371171e-02,1.734273516598679732e-01
-4.216810405063505830e-03,1.718210318126361155e-03
-1.017933892913009730e+00,1.666076325436542271e+00
-2.698382847245031968e+00,3.647215100755049288e+00
-4.724664840244946262e+00,4.918920999369032820e+00
-5.449791541898645342e+00,3.777794858951364354e+00
-5.104469901474550042e+00,1.479437403331983703e+00
-3.356194741493025546e+00,-1.097657732209090381e-01
-1.119555949386181526e+00,-7.306282362432245381e-02
2.728087957622748333e-02,2.258216306743971169e-01
7.241726857305862131e-02,3.966219792294155000e-01
3.702611492601401988e-01,4.259149018981610024e-01
7.381369800639501211e-01,1.019010348580914771e+00
4.727594669757651524e-01,1.635242782614952484e+00
-2.312839651752158221e-01,2.483724954695371689e+00
-6.627119616318052353e-01,2.477382312776255535e+00
-9.408186271584385585e-01,1.318661402050198550e+00
-9.211376626318614758e-01,9.354658208195628655e-01
-4.693888907137755973e-01,9.936232902386284982e-01
1.196494958700723421e-01,7.134787788697931621e-01
6.175486576450514020e-01,1.234192344514307926e+00
6.614990499575522653e-01,1.777933102004572552e+00
1.834131149769280544e-01,1.284483893038636193e+00
-5.808700268749691364e-01,3.943894359374213732e-01
-2.527674659366757615e-01,5.380263114447841888e-01
5.231600394061564074e-01,7.802043799298712390e-01
7.242910395845945926e-02,-1.960576203177344934e-01
-4.634673956392345029e-01,-6.988904584657448238e-01
-1.865813338282113598e+00,-4.970583908099955872e-01
-3.816601187432982378e+00,-1.033209449512794559e-01
-5.112972977256820428e+00,-8.805708185665525600e-02
-4.811894242953181688e+00,-4.421689158061873348e-01
-3.422627215803198286e+00,-9.605775183275279128e-01
-1.818520450618243745e+00,-1.040895986199662504e+00
-3.882969957057360588e-01,-6.737839219616839070e-01
6.317442405375931491e-01,-3.649715944578633131e-01
8.846315174319986374e-01,8.761189071921214599e-02
5.879851496114799625e-01,4.163483179681117807e-01
-1.330591323696574679e-01,1.163783208913726996e+00
-2.306208540400910001e-01,9.790924858830863942e-01
4.289543152256510838e-01,-1.538853447027577204e-01
6.696684491225858293e-01,-4.635018004293964822e-01
3.032394343990707508e-01,-3.068227448731314019e-02
2.232202624743451214e-01,2.071729383002337763e-02
1.065326903398888359e+00,-2.130537601080824683e-01
1.975366570949626199e+00,-5.935829008028543630e-01
1.805248592940219554e+00,-9.448518789323310241e-01
9.612980017520151854e-01,-7.244699513269974300e-01
3.794586747817503825e-01,-7.229420626302481834e-01
1.633417146658194818e-01,-8.209693485265464608e-01
1.611871199244840902e-01,-2.879166127695652611e-01
-1.859519060272485924e-01,4.658032824955161688e-01
-1.248292845834017006e+00,1.789834787512772252e+00
-2.233231678167949763e+00,3.302928335118626268e+00
-2.114250634753159108e+00,4.177389689585764287e+00
-1.424867334009528586e+00,3.506077985082401316e+00
-7.775517554574352674e-01,1.745857687938468406e+00
-5.121598532507103396e-01,5.772220823341400742e-01
-1.314677632686934994e-01,3.955686682578102853e-01
3.596398141751485089e-01,2.439990762289321324e-01
2.728087957622748333e-02,2.258216306743971169e-01
-1.005816475773361057e-01,9.484024866380946772e-01
-1.843273833624475000e-01,1.590654323105414880e+00
-4.902126423693012325e-01,1.265047684057316379e+00
-7.515561541272688384e-01,1.375061376502323129e-01
-1.309634964356290121e+00,-4.981333646623448685e-01
-2.080876781445568202e+00,8.774201806536828518e-02
-1.295767817470012462e+00,3.649667235708994872e-01
1.010039914217656098e-01,-1.159992911728237042e-01
3.141319991010004808e-01,-3.118233180791786865e-02
1.245445834753240583e-01,-1.374845676549607543e-01
-1.134778328010562776e+00,-4.776410037670136832e-01
-3.391162906906349583e+00,-2.080045353899530047e-01
-5.131060847374373957e+00,1.012899840796272155e+00
-5.592806822224898333e+00,2.100334369823402714e+00
-5.035958853011617720e+00,1.794463517406936770e+00
-3.289651822320938557e+00,4.299026049421606488e-01
-1.052601420944158317e+00,-2.040033022890554160e-01
-2.694607170089314760e-02,1.421005465624587960e-01
1.477649532963399848e-01,4.749653660282108780e-01
4.672809537012404535e-01,7.576055657999345438e-01
5.018125405974764863e-01,7.569352449073032396e-01
1.058723772298084537e-01,4.958908542364184879e-01
-4.663880097826334503e-01,1.249101500495540806e-01
-8.730157828154102573e-01,-3.768586999388470055e-02
-9.176032606414956661e-01,-2.901670770164051505e-01
-5.745741079947881413e-01,-5.674036689949794043e-01
-1.138920624449657887e-01,-8.355672767226695052e-01
-2.907522274415523245e-01,-7.146063202560226646e-01
-4.673474895583272226e-01,-1.465347393099281914e-01
-2.501057950503376426e-01,1.024843123310191506e-01
3.384741736106751664e-01,4.020190124900182571e-01
1.073519115334751889e-01,1.409089490939805511e+00
-9.045624193549238745e-01,2.313130323513209685e+00
-1.175448898915930185e+00,2.278207357530797061e+00
-6.445241050891925561e-01,1.211840502145334453e+00
-4.692789099922628493e-01,-3.091697606176336266e-01
-2.379753721328903837e-01,-1.081156585384049906e+00
5.046346792265785641e-01,-2.628254138412866592e+00
6.828193611487658465e-01,-4.717446072313254746e+00
3.161504145512231689e-01,-5.385293747202148928e+00
-2.554812317740470795e-01,-4.430598185261984234e+00
-5.225398909243922363e-01,-2.662393515662095478e+00
-1.474082917601528431e+00,-1.420201963823527702e+00
-3.234498321005423893e+00,-9.450902445616380376e-01
-4.492885352369869523e+00,-2.972334225607580205e-01
-4.492885352369869523e+00,-2.972334225607580205e-01
-4.492885352369869523e+00,-2.972334225607580205e-01
-3.661775626317580468e+00,-1.710496491514450212e-02
-1.896774256355122423e+00,-1.397485192992952430e-01
-5.683658035385711349e-01,-1.665782906755413351e-01
-2.697098114422872284e-01,-1.696989472943387367e-01
-6.213991042185009750e-01,-1.183300974544276851e-01
-9.291856618526125322e-01,9.338867072053042007e-01
-9.009878055504380034e-01,2.189676106813275513e+00
-9.009878055504393357e-01,2.189676106813276846e+00
-4.941697925142883863e-01,7.057910770212791896e-01
1.541030881108930960e-02,-8.206341254659635931e-01
5.072089522832851777e-03,-9.545781057440178019e-01
-1.181533132221325444e-01,-1.756844427502552708e-01
4.148244502560122920e-02,1.379240489301350181e-01
1.658025923986082562e-01,-1.256867062714580874e-01
4.269393585415904441e-02,-3.558815736744416203e-01
-4.376314223389136254e-02,-1.485356577650058241e-01
1.588694223663757524e-02,4.787254611728681830e-01
-5.535180995870594423e-01,2.453582033495629589e-01
-1.398054545755988087e+00,-7.721621393641148190e-01
-1.621141402791485442e+00,-1.465590202582637280e+00
-1.064953100249786733e+00,-1.351367059483462363e+00
-2.812625146068119530e-01,-4.984418005424595677e-01
1.202003903916067706e+00,-2.426415155661244827e-02
2.184931210667123924e+00,6.733192921432719358e-02
1.653923561846271983e+00,2.951245152399037952e-01
9.902212918335685510e-01,3.893429918559682679e-01
3.114131784866718267e-01,3.297153332897961864e-02
4.269393585415904441e-02,-3.558815736744416203e-01
5.991932340712261551e-01,-1.145672340589727778e+00
1.541910283433879814e+00,-2.095876286731503502e+00
1.937409710643406502e+00,-2.538242497607527959e+00
1.576554564044054141e+00,-2.171400554785773096e+00
9.019258648717185523e-01,-1.483267198151847932e+00
3.309450392075471425e-01,-9.104867317560096929e-01
-3.333753266887227173e-01,-8.056239919918276593e-01
-3.333753266887227173e-01,-8.056239919918276593e-01
5.478921875648141704e-01,-6.738869754505444343e-01
1.153929309771204226e+00,-7.601553185572567095e-01
1.042375841471975706e+00,-5.255434088342774146e-01
4.321855567123801811e-01,-1.619328574130160792e-01
-5.101064478598762303e-02,1.064361261583763457e-01
-1.730312931734366289e-01,2.623437572697292497e-01
-2.649265883492032403e-01,2.402175831038009801e-01
2.202034222186759552e-02,1.954785529053254811e-01
5.371199694219863652e-01,8.669285285286011666e-02
4.603146248488821368e-01,-1.464201745505738783e-01
2.261311343625000692e-01,-6.404752116863288158e-01
-1.284908151578474655e-01,-1.296666589253713697e+00
-3.944299367893421282e-01,-1.461613543857382513e+00
-6.583598193929873776e-01,-1.275386068331862965e+00
-6.347611144165091757e-01,-1.377682162845365488e+00
-3.705796974614260497e-01,-1.602265725474313784e+00
-9.095207161579131616e-02,-1.047625876047669102e+00
-1.622700973725262619e-01,-5.904266322848008564e-01
-5.414120429764168740e-01,-8.193414883244229951e-01
-4.057093922764813398e-01,-5.937292898080382963e-01
1.471321149993594646e-01,-6.430586609864859249e-02
4.209199056386311866e-01,2.702214981795331705e-01
3.504188814726981738e-01,2.762663397616612060e-01
4.406660838144922931e-01,3.269935882101165370e-01
6.403370411188367139e-01,4.885847270280528898e-01
6.403370411188367139e-01,4.885847270280528898e-01
7.830425843399467789e-01,4.440440254072284404e-02
1.108305945750218680e+00,-4.145973423060105856e-01
1.154300590491039724e+00,-4.952521500529675769e-01
6.692884985907380235e-01,-4.889760814970615238e-02
3.356412224750643936e-01,2.235828219807113604e-01
5.283680287370098316e-01,2.269975974246297712e-01
6.261467597222358794e-01,-3.772601161521486057e-01
6.161426283118116576e-01,-1.117048257500526054e+00
-2.616811717260303372e-01,-8.323964031741836189e-01
-5.647186025151109678e-01,-6.303315654581745919e-01
2.873174420193356782e-01,-7.521307990659137355e-01
9.412428060834826526e-01,-7.357471545632192633e-01
1.190366401432748855e+00,-6.812765405828477006e-01
1.067452057342135108e+00,-6.980040647468778170e-01
9.542658766128792047e-01,-8.334201672411157835e-01
8.266580375077707821e-01,-1.039924344090805253e+00
6.161426283118116576e-01,-1.117048257500526054e+00
8.205819892229569978e-01,-6.124911139532547288e-01
1.161106999345931090e+00,-3.728915405393260496e-01
1.128210593756286739e+00,-2.715397230713234022e-01
9.963485674932130998e-01,-3.903557944138918295e-02
5.007127679714045154e-01,-2.010755669518413460e-02
-2.041248951403418221e-01,1.658697580816945183e-02
-3.542132536146296862e-01,-1.396566642403700154e-01
8.928462411910222107e-02,-5.806923467044836640e-01
6.161426283118116576e-01,-1.117048257500526054e+00
4.422831945699758349e-01,-1.133932995749083128e+00
1.036794356360697389e-01,-7.666336545015431936e-01
-1.909299974584995896e-01,-2.059042357233240028e-01
-5.726499945483736198e-01,3.122183843127986913e-01
-5.634110550254570748e-01,2.858628498299375376e-01
6.702663005106167422e-03,-2.346557078538807628e-01
1.219136101197226679e-01,-6.723315757406672644e-01
1.219136101197226679e-01,-6.723315757406672644e-01
7.112520414561965820e-01,-7.622684679952230757e-01
7.939921184100138252e-01,-9.290065250003154418e-01
6.161426283118116576e-01,-1.117048257500526054e+00
5.053391229907895355e-01,-1.089549496652701732e+00
5.606323399786906636e-01,-8.994908837487010089e-01
5.676015550530678633e-01,-4.177491044768239514e-01
1.754450787575728976e-01,-3.585549055131454499e-01
-2.292617592233259782e-01,-7.241407000987999387e-01
-5.329149790043322676e-01,-8.324953095702908312e-01
-1.175179324644657353e-01,-1.035090850070419677e+00
6.161426283118116576e-01,-1.117048257500526054e+00
4.353689483060325660e-01,-6.103788516071259052e-01
3.789919851285161179e-01,-1.098874078558688544e-01
3.016206464889356065e-01,3.901526511913515072e-01
-8.930171204047215525e-03,1.021531316184820515e+00
-1.201657237253109384e-01,7.744067128608527195e-01
1.175120521382597705e-01,5.512682817338260960e-03
9.533856667511853011e-02,4.578994460881241624e-02
-5.697901613254318098e-01,4.019177323496605503e-01
-3.727638140746081241e-01,7.514155648948460386e-02
6.406330206434741603e-01,-5.800778300615350158e-01
8.622854520447651439e-01,-6.255348833043372636e-01
8.927819204122054986e-01,-7.674559454567368988e-01
1.244649346820540181e+00,-9.113103506289367273e-01
1.460482302735274684e+00,-9.746950109423215824e-01
1.204261849249225191e+00,-1.186923340544021599e+00
7.888799843029364878e-01,-1.196224073119644515e+00
6.161426283118116576e-01,-1.117048257500526054e+00
4.422831945699758349e-01,-1.133932995749083128e+00
1.393643482564445701e+00,-9.650937598042778065e-01
1.605505697256480291e+00,-1.072650230381203551e+00
7.888799843029364878e-01,-1.196224073119644515e+00
6.161426283118116576e-01,-1.117048257500526054e+00
4.422831945699758349e-01,-1.133932995749083128e+00
1.867541096827201874e-01,-9.810313351580185470e-01
7.196756850275684569e-02,-7.573325252392701934e-01
1.342600726717743491e-02,-4.184481499350508615e-01
-6.386710775017075126e-02,-9.970881443737406036e-02
3.941361686553158661e-01,-4.429135272836982606e-01
7.313549303217515840e-01,-9.591945004966343502e-01
4.367497430815865389e-01,-1.002437075827923518e+00
-1.940482456986977744e-01,-1.005306055862914105e+00
-7.523084215556353760e-01,-5.169585080610273886e-01
-1.202884827684553182e+00,1.227623267941077678e+00
-1.433245188476791165e+00,3.286073604274557081e+00
-1.382686084821658890e+00,4.672163983303152079e+00
-1.079702685560889996e+00,4.614918346284033746e+00
-7.244140559115215261e-01,3.711186639213500893e+00
-3.627734574455672434e-02,4.381998213222767724e+00
8.345979553160792763e-01,6.823829963847040325e+00
1.479966152822584036e+00,8.865976107448028998e+00
1.614154437482862026e+00,9.005271995888701753e+00
1.164645132705245834e+00,6.360899666446412581e+00
4.364644149734915879e-01,2.249757283463158952e+00
-4.494146705923958707e-01,6.644607558652111390e-01
-1.902570217623612558e+00,2.435704125758819227e+00
-1.787759557308778779e+00,3.458828015396210986e+00
-3.505500082544596996e-01,3.079558127833087688e+00
-4.264802635617866433e-01,1.378576462569243599e+00
-8.221152483739135874e-01,1.749480244770705850e-01
-5.132860855360145136e-01,-6.002846495442425850e-02
-7.829285377005129609e-01,-6.287540845447329163e-01
-1.269450767572461780e+00,-9.177281022795951149e-01
-1.298533735706856040e+00,-7.656073356392351092e-01
-1.119736178248766700e+00,-2.906842221458816322e-01
1.803573327443421491e-03,4.453543220333921158e-03
9.963485674932130998e-01,-3.903557944138918295e-02
1.017035559951233070e+00,2.399925703660481593e-02
9.930267603910538643e-01,1.063870028363478881e-01
9.963485674932130998e-01,-3.903557944138918295e-02
8.044304994843527457e-01,6.091163359961381668e-02
4.059528211720199731e-01,3.662239708311286757e-01
-2.868092322023352292e-02,1.632442080625200465e-01
-1.270380334362671837e-01,-1.281030393990236493e-01
-4.069046418738822002e-01,-4.618567640890228199e-01
-3.277486735637136772e-01,-3.232838271805926200e-01
9.118837916157997159e-02,4.119142363014238750e-01
2.140238637056047777e-01,7.107003649490392094e-01
2.407281933815752506e-01,-1.245894571778671245e-01
4.474465705045553299e-01,-8.045906571259280327e-01
8.452785942914135819e-02,-8.216131161157415042e-01
-1.173493420908953810e+00,-2.107819443874837440e+00
-2.506889707594143868e+00,-3.356905586887839466e+00
-3.152685864465118559e+00,-3.076185222081428083e+00
-2.771380896159583607e+00,-1.731749010872565497e+00
-1.989064306154292749e+00,-6.486381909753565767e-01
-1.288639915269912173e+00,-2.986351917761395636e-01
-2.680547259142967986e-01,-5.786568416622948074e-01
6.161426283118116576e-01,-1.117048257500526054e+00
7.892520135615563870e-01,-1.918604271058019783e+00
9.534484704017274215e-01,-3.169746576971838259e+00
6.575646861554867995e-01,-3.787993691241965610e+00
8.265870537216842007e-02,-3.046413153044543520e+00
-2.093448212121387653e-01,-1.497011639409934647e+00
-1.506226099113252281e-01,-5.452288687351933838e-01
-1.173614722922212139e-01,-3.283303419930374556e-01
-4.919430580957195875e-01,-3.877115064497710373e-01
-9.728841882468388658e-01,-6.632247371948504222e-01
-9.728841882468388658e-01,-6.632247371948504222e-01
-5.275133831360927505e-01,-6.387068774444916164e-01
-1.982046900853143556e-01,-6.542492820082984606e-01
-6.209414025001908088e-01,-4.845547358389465931e-01
-9.568713178082370874e-01,-4.557053536810158900e-01
-7.519184704366010941e-01,-8.218351229163139982e-01
-2.917747937639674216e-01,-1.529077539676713338e+00
-6.984358458088315569e-01,-1.433020295946364930e+00
-1.771678976728366495e+00,-9.323576441313422558e-01
-1.735620351659510563e+00,-8.217226033149439557e-01
-6.894076285166537144e-01,-7.363562341100952091e-01
3.127612395029628067e-01,-1.287082203503754352e+00
5.609592985500728712e-01,-1.759423798928082538e+00
4.125592712240880866e-01,-1.491027208946896332e+00
1.064940598201645772e+00,-4.679704966973515234e-01
1.441303702075840354e+00,2.405533480599951757e-01
1.024811026766518474e+00,5.662470007867304034e-01
1.250509676750585664e+00,4.107654867540446730e-01
1.359563579840338710e+00,-1.179224992102629460e-01
1.026879611296876771e+00,-5.854989014916860413e-01
8.450156230086576237e-01,-8.958070791509936681e-01
8.827262837757170466e-01,-3.214777564755202932e-01
7.204391746827329968e-01,3.979708762496838026e-01
-3.405181937526352010e-01,5.901050112372169254e-01
-1.590872996061286626e+00,2.127536303514841187e-01
-2.226806374588915283e+00,-2.025000420327380257e-01
-2.255557689542865507e+00,-2.640506404174166044e-01
-1.621452985961477467e+00,1.472882184227179148e-01
-7.550646425870406464e-01,2.196061292307291968e-01
-2.419735119539850043e-01,-2.614509915436619703e-01
-1.281079454842508070e-01,-5.863949654001870959e-01
1.879733595722655748e-01,-8.442179003044217867e-01
5.565984538669328519e-01,-1.951893089534639525e-01
5.098959951522191725e-01,6.420710623522367655e-01
4.535497949610727275e-01,8.883908332449240719e-01
3.271725124173788801e-01,4.303060905921001211e-01
-1.847638691894573082e-01,-3.912813298086635361e-01
-1.266551093493136770e-01,-8.665863830951023861e-01
6.003341052639729059e-01,-9.455031492470491461e-01
7.291718080723617046e-01,-9.078652573379013546e-01
2.927905296878134389e-01,-8.850655276838865770e-01
2.869793339620192452e-01,-9.967782159701500388e-01
6.161426283118116576e-01,-1.117048257500526054e+00
7.677885321844387656e-01,-2.437256353004853826e-01
5.604995621004434936e-01,-3.612377125277027590e-01
3.183917806262750450e-01,-1.102740751672573127e+00
6.378445483578949471e-01,-8.638961921192730431e-01
8.696418466410670289e-01,-5.927199804966196695e-01
8.757578627140437666e-01,-4.020504720865588633e-01
9.432818785968497544e-01,-4.319522691398675063e-01
9.432818785968497544e-01,-4.319522691398675063e-01
1.118433054139984506e+00,6.727606948819093990e-02
9.857915070269986924e-01,1.549770256334720431e-01
4.515978141966049408e-01,-2.008219972109993035e-01
-5.821840807200553969e-02,-5.524747201564719212e-01
-2.249034024522770514e-01,-5.362267498459337700e-01
3.600619353897631103e-01,-1.389954205770564111e-01
1.129092671747474963e+00,2.593303378020745398e-01
8.557036992061216596e-01,2.486352207451759111e-01
3.492002385221871230e-01,1.080878530863184778e-01
-4.699752571364761433e-01,2.717962789146873281e-01
-3.841316408248087177e-01,4.608840465497304750e-01
1.244103298232399901e-01,3.982212264837081128e-01
3.336968347354863917e-01,1.702142853469714168e-01
5.623603841047655205e-01,-3.863579673738161413e-02
5.627368747967211871e-01,-4.486818347965791931e-01
1.027007544034963749e+00,-7.403503503891637472e-01
1.764838503521454216e+00,-7.225809406811979363e-01
2.810222429968735725e+00,-1.761767446498467005e-01
3.359682868549870971e+00,3.922527354549665835e-01
2.503628701262674561e+00,3.072077021469962754e-01
1.749018733166295636e+00,-1.040183064965720938e-01
1.599861603409293176e+00,-2.205978779196641759e-01
9.817912934164109151e-01,-2.103728529377365099e-04
2.529404851534273191e-01,1.109871271425891592e+00
-1.098791722226762246e+00,1.262718566989755153e+00
-3.149345334863964840e+00,4.302037331159982991e-02
-2.988557823433311889e+00,-5.278558635288017609e-01
-9.112925297733466268e-01,-8.398979978429003956e-02
6.715643642182502759e-01,-3.329256311514948719e-01
7.911821055860497331e-01,-1.008481355166355620e+00
7.608498524660664009e-01,-9.350714663976995578e-01
4.413556009311601219e-02,-6.302557914279510731e-01
-7.062012504693814252e-01,-6.548360131028876374e-01
-1.320629599093023021e+00,-5.186510399336332622e-01
-4.261665336754394962e-01,1.241803164613501792e-01
1.387705329367013629e+00,5.871351425166151383e-01
2.147274485012867551e+00,1.614604936738738561e-01
2.233208624455286451e+00,-5.742722218783603561e-01
2.533623241703780504e+00,-4.086615600343228571e-01
2.441642887259722006e+00,1.917068102359425763e-01
1.574906891354087124e+00,2.910153467783382353e-01
8.316546171106847796e-01,-1.941805938796165310e-01
6.224459899331268309e-01,-1.936485117951534940e-01
6.695596740409878178e-01,6.313952314657397258e-01
2.926857591850086093e-01,9.978746177882262813e-01
-1.979649850684838119e-01,4.966704005246876941e-01
4.373713756242090384e-02,-4.386898933020475511e-01
6.070401048669333832e-01,-1.215107226774662763e+00
9.687885765273773764e-01,-1.204513309769060125e+00
1.147310375606096056e+00,-5.365360435618599100e-01
1.091809949480707420e+00,5.048435380332062516e-01
8.858457874189619163e-01,1.111143374407213447e+00
1.055658788800546422e+00,1.104951792095832275e+00
1.243246244956468072e+00,8.790014417067258945e-01
8.574861805203098930e-01,3.993425970251389123e-01
4.631154711781108602e-01,1.648896378089358405e-01
4.624110256434277866e-01,4.285085473627796571e-01
4.008644066996415734e-01,2.154363231056524441e-01
4.486509851386402681e-01,-5.460917072246405102e-01
6.161426283118116576e-01,-1.117048257500526054e+00
6.161426283118116576e-01,-1.117048257500526054e+00
8.205819892229569978e-01,-6.124911139532547288e-01
4.005893518905314088e-01,-4.004088711175580739e-01
-6.037991758304436241e-01,-6.501761559347761787e-01
-1.096867563805337120e+00,-5.634927811172337764e-01
-1.067489920410420234e+00,-5.372100327086296589e-01
-5.805634665407807260e-01,-5.177576145157125609e-01
-1.041197179374924939e-02,-7.923841293252159579e-01
3.351474726397345449e-01,-6.329043305600318137e-01
-6.412627132552596587e-02,-4.449695050667663021e-01
-2.607977008329918078e-01,-2.023187501783504372e-01
1.941692055019504926e-01,6.056821624847852359e-01
3.203941965205488462e-01,7.288792951744583748e-01
3.878788552088943686e-01,5.099829937812042635e-01
3.307578736077050330e-01,2.744058976962590601e-01
-5.103120223373937003e-01,-2.950815262599787991e-01
-5.134756931862002327e-01,-8.739371400582193194e-01
-8.093337323673333028e-02,-7.150627664221581581e-01
-1.626587136743010975e-01,-5.303908095574083603e-01
-2.030916129679546378e-01,-3.116571676836251137e-01
-3.286417761290636452e-01,3.524210457479289849e-01
-2.642187738459854662e-01,5.369699318625278384e-01
3.509347068839379497e-02,8.975233531593959091e-01
5.882283099614602495e-01,1.417769928858529038e+00
6.987095754446803753e-01,3.111333631384232579e+00
3.284408573392680331e-01,4.253424348508834996e+00
-3.604894782677410814e-01,2.986322545116395943e+00
-8.965175946484933434e-01,2.898152473567184861e-01
-6.313398425099140399e-01,-8.947408872034774419e-01
1.657381603580067309e-01,-3.196001652224222944e-01
7.954786820872865594e-01,6.310347683174744038e-01
8.699463320912784736e-01,8.271711353634573216e-01
6.024335833527798556e-01,-2.006948271773738579e-01
4.845560500188908493e-01,-6.727244034889058311e-01
4.365197028612420871e-01,-3.404110859683821544e-01
7.062675087337589863e-01,3.283411782748102969e-01
5.683703657734158199e-01,1.041463376625706427e+00
2.072203730109785647e-01,1.686950632238492398e+00
2.049930056934005373e-01,1.647118062605160915e+00
4.941430935962559112e-01,8.957947677536899356e-01
4.427201677911240529e-01,1.202959140292260837e-01
2.262669629643153657e-01,-2.144519772760299647e-01
2.883706764002292311e-01,-1.511330039433531336e-01
5.023554835831738341e-01,-3.572844578672250693e-01
6.970000036811484501e-01,-7.350040240932365077e-01
8.144172530943495358e-01,-6.630964181599244833e-01
6.918645961176222992e-01,-1.505852975764787050e-01
4.352282562321793669e-01,9.023611152941031222e-01
1.385538133229432811e-01,3.386795871547406134e-01
-2.428744553266969364e-01,-7.468457117859355066e-01
-3.568647543707854641e-01,-6.871558277790530411e-01
1.190655464645546807e-01,-2.930503684949111246e-02
5.779470401827394577e-01,6.178956607538115264e-01
1.183633540269601325e-01,4.726533251128645086e-01
-5.061561862198126205e-01,9.330972737648263182e-01
-1.038502565860280225e+00,1.469309832003141247e+00
-1.070800655811544821e+00,8.836551093893252329e-01
-1.545505238965699628e-03,1.674876434215652743e-01
9.280518575574019380e-01,1.544184367933505719e-01
6.067860852095845470e-01,4.190664814826478568e-01
-8.480899812305002852e-03,1.965891927066863443e-01
-1.281678393425602636e+00,8.061894888039740081e-01
-2.092956238660462986e+00,9.482535859942708978e-01
-1.673587060937500093e+00,-6.952269087719060991e-02
-5.368557897731869311e-01,-3.137415528538884946e-01
6.323194009527106640e-01,-7.631153294203002480e-02
7.960827540425151616e-01,-7.448407819071668767e-02
8.677364349247941311e-01,2.687118629936028347e-01
1.102994761541239432e+00,-3.717070938332792118e-01
7.059663854007618422e-01,-8.550995876221323400e-01
1.551720981394988418e-03,-5.922155528484122078e-01
9.592655312876828544e-02,-3.433663077149309295e-01
5.775713104706466927e-01,3.925884997691433953e-03
9.963485674932130998e-01,-3.903557944138918295e-02
7.451371589732354028e-01,5.451922299360380253e-02
-4.647075940243142189e-02,-1.065004679568922474e-01
-8.481659413433118022e-01,-4.796783874108256907e-01
-1.533339335051261187e+00,-8.966013806258069652e-01
-1.540376417710902723e+00,-1.200117442789755628e+00
-4.926962489914144538e-01,-1.005312462582047761e+00
1.206612183751917255e+00,-5.662706772275172273e-01
1.595190185940361882e+00,-4.556166291552186109e-01
3.568900119872497334e-01,-7.005680805582480408e-01
-4.368741181697504694e-01,-7.146743059417601796e-01
-1.920887987696303367e-01,-5.364300766386456143e-01
1.551720981394988418e-03,-5.922155528484122078e-01
2.171713487075931370e-01,-6.820857434404747899e-01
6.737822456289501716e-01,-7.992343586001739997e-01
9.471760674311361372e-01,-1.007732971145434808e+00
2.086107456015120765e-01,-1.302101875806910725e+00
-3.425680228182439446e-01,-1.124323859769995382e+00
-2.896952358204111233e-01,-2.985284525408867795e-01
-2.896952358204111233e-01,-2.985284525408867795e-01
6.190284351057569190e-02,-5.135692637120830017e-01
3.526109853237003322e-01,-1.096365968334231805e-01
1.482809460439371216e-02,-1.050624753837558698e-02
-4.741901406854445167e-01,-1.888469697021055438e-01
-2.682816508665570865e-01,-8.059928291152601565e-02
4.525986780929959763e-01,4.491432466574532545e-02
9.963485674932130998e-01,-3.903557944138918295e-02
9.719345547396142093e-01,-4.073815530962284770e-01
2.246162807590126598e-01,-3.437370669108281152e-01
-3.542132536146296862e-01,-1.396566642403700154e-01
-2.858868829609872986e-01,-3.286704984192290735e-01
-4.175265508269962456e-01,-7.651344081021145271e-01
-4.288282180897582951e-01,-9.706900005347586236e-01
-1.680453176253106085e-01,-9.162965910397058433e-01
4.726422353532724885e-02,-1.038857607892977208e+00
-2.215134123197663729e-01,-9.884870762143709300e-01
-9.289862013840535226e-01,-9.800620910961075349e-01
-9.238541348144571064e-01,-1.361543220303507828e+00
1.323714173525470106e-01,-1.440233147099432065e+00
7.888799843029364878e-01,-1.196224073119644515e+00
6.161426283118116576e-01,-1.117048257500526054e+00
1.031911722848996293e-01,-9.768900057595507613e-01
-3.394673402649798777e-01,-8.660154710451642979e-01
-9.289862013840535226e-01,-9.800620910961075349e-01
-5.971971307608266999e-01,-1.118851099373704638e+00
1.925139414301123841e-01,-7.783663895848811354e-01
-6.123083580881882870e-01,3.177223347415301657e-01
-1.622328403461247293e+00,1.202931505805853618e+00
-2.601512873081179844e+00,2.314997014019375410e+00
-3.067754086776919298e+00,3.174069096600197426e+00
-3.067754086776919298e+00,3.174069096600197870e+00
-3.067754086776919298e+00,3.174069096600197870e+00
-2.931796926505907841e+00,2.329794610313578040e+00
-2.903135379964394858e+00,1.712545867573385339e+00
-2.965088502268727666e+00,2.226387716114407667e+00
-2.987718235579106985e+00,2.853889232510207652e+00
-3.216295087079308779e+00,2.126045768822303561e+00
-3.497165876331529422e+00,3.384486251207979857e-01
-2.596106144798586701e+00,-8.259617757235522273e-01
-1.526265239115945693e+00,-1.119822297374205577e+00
