3.791621476807732205e-01,-1.330315945016871559e+00
4.303002390866258464e-01,-8.555821201327753478e-01
4.287370342547692226e-01,-2.980290075876869671e-01
6.300731102043812815e-01,4.175502424939536716e-01
5.892018654265550603e-01,4.715007002216821119e-01
1.964811841345613708e+00,1.682274524962795947e+00
3.581519048702434649e+00,2.866254574937159738e+00
6.091179687271200294e+00,5.992244731343891573e+00
8.565976957203151443e+00,9.553547478660203041e+00
1.048495967397470707e+01,1.299361255620255839e+01
1.054568998861412865e+01,1.350465962078696869e+01
9.156764966189777866e+00,1.163428128130538219e+01
6.719653531911580657e+00,7.848736213210629309e+00
4.101909619855647726e+00,3.908018996279659873e+00
1.928307489444711198e+00,9.623024244787364845e-01
8.226266672278624847e-01,-4.157119808898803170e-01
6.852009588359603276e-01,-7.735783599700974955e-01
9.519066602176445846e-01,-1.934503031516172866e+00
5.227226199809775764e-01,-2.739763375749854291e+00
-2.194529842924625718e-01,-3.037778998902635585e+00
-1.769167273976646859e+00,-2.806245438364403100e+00
-2.911235560920012677e+00,-2.387785788682995847e+00
-3.475041797654677911e+00,-1.776544840038447148e+00
-3.461206865776576880e+00,-1.043504114302755692e+00
-2.824318452744082109e+00,-5.006481241338051058e-01
-2.157205685276992746e+00,-4.868487415186584233e-01
-1.362510103710986575e+00,-5.398689824542423077e-01
-7.734924850314249811e-01,-9.254933423668815218e-01
-4.455939117684551976e-01,-1.068580266829401104e+00
-8.432678339492544195e-02,-1.104361084926482883e+00
1.644672422659662070e-01,-6.972056547412517347e-01
4.991135267334343428e-01,-8.358848440267951929e-01
7.876369704786211345e-01,-4.050249019680960405e-01
4.860577710786826988e-01,-8.305294205902730154e-02
5.204691112296539607e-02,5.672488170019092113e-01
3.572913646497177451e-03,1.063161531583653119e+00
2.931984091452727870e-01,1.082563455858669199e+00
1.017091664554619301e+00,1.182473785602352390e+00
1.490346084234082102e+00,3.575604379602939087e-01
1.891741304708991933e+00,-6.226161028009492837e-02
1.334721558477605097e+00,-5.944011300803214715e-01
7.282470811299263103e-01,-5.316982172043771548e-01
-1.303102623270578353e-01,-3.608439063110122774e-02
-8.346493976503880363e-01,2.243529319699209545e-01
-1.534379656325191243e+00,2.183483383782162668e-01
-1.629677096095911493e+00,-2.242078470540554147e-01
-1.497375875153728053e+00,-5.276444530593985549e-01
-1.226040197387398889e+00,-4.531915708203089754e-01
-1.417063449017547327e+00,-1.562671215874788244e-01
-1.103859800707356342e+00,7.295888669680385130e-02
-1.411218958269355062e+00,2.518667248358629207e-01
-1.882375540148641946e+00,1.090441872577744054e+00
-2.238544979483269692e+00,1.571806513004223138e+00
-2.282008647560985981e+00,1.769908877706170891e+00
-2.282008647560985981e+00,1.769908877706170891e+00
-2.340919122779422601e+00,2.375495432711357324e+00
-2.546357988692103724e+00,3.413610481389990792e+00
-2.215699582733825057e+00,4.141402897574245401e+00
-1.581349604149804078e+00,4.220957782753505860e+00
-8.089494044943043027e-01,3.643138230273791134e+00
-1.584396674848506936e-01,2.276598721281424709e+00
1.180979440978394690e-01,1.165501957210360651e+00
-7.530181731107361831e-02,3.165403399471864998e-01
-5.104456781674945320e-01,3.510606972074374887e-01
-5.651390140867346146e-01,-1.868952747922348334e-01
-6.235959854732152641e-01,-3.425833600390892353e-01
-5.398298916870706288e-01,-1.998133868679459746e-01
-9.492697967343309839e-01,2.245590626714215055e-01
-1.220859966385870132e+00,6.311879730196371385e-01
-1.379487851265589260e+00,6.073516468303247207e-01
-1.511231526167522432e+00,7.356883339157237467e-01
-4.175659607054124089e-01,2.287381204743659316e-02
1.094385432744107017e-01,-7.991816596966573941e-03
8.812023244555181600e-01,-2.386761329338233373e-01
8.534478576457020793e-01,-7.684351287267124353e-02
1.063425617613158902e+00,-2.257986964663867835e-01
1.148652911781987251e+00,-4.389126630987452149e-01
1.159637198797439206e+00,-5.900516282222898479e-01
8.889170090196819585e-01,-7.973589837882714138e-01
7.056564977331629684e-01,-7.609135511539708574e-01
5.525070078866460843e-01,-5.554353143126028458e-01
6.168398275447061208e-01,-2.346421575762527023e-01
5.918087393517899031e-01,-3.723333732468449286e-02
4.861643358347820243e-01,-9.318940726846552947e-02
5.541582988189557302e-01,-1.903148649798867553e-01
3.585029165636713366e-01,-1.335566556500454305e-01
4.925815763663025093e-01,-1.004067227844382737e+00
2.024527576909311566e-01,-1.510501358255700977e+00
2.572169421546309231e-01,-1.675901835932625206e+00
3.416509383356855500e-01,-7.805073587970738913e-01
4.867720851919093983e-01,-5.886805392910355872e-01
5.627183053043134375e-01,-8.246393921781577374e-01
3.816569141913858654e-01,-1.196410636664746230e+00
2.231231967662928584e-01,-1.417632403413636055e+00
3.595473081612950983e-01,-1.339708236772576777e+00
2.948925894142994109e-01,-1.150278543226155969e+00
2.934281036378679208e-01,-6.955256534897539256e-01
-4.863771320309277085e-02,-3.858488448108906010e-01
-2.605195754593219726e-01,-1.705770622152159022e-01
-3.962913217228672957e-01,6.309805165998491616e-02
-3.619483435821214123e-01,2.411158726723149348e-01
-2.609337193997575133e-01,1.485094790719755364e-01
7.358637663257201755e-02,3.216355538325242902e-01
3.873774963705108321e-01,4.703746250037011412e-01
6.111467812254538501e-01,7.085151016584760875e-01
4.315275290445241274e-01,4.409059159070176093e-01
-1.153479382921419327e-01,2.201846952454319106e-01
-6.262306127513629361e-01,7.945329494881031573e-02
-7.774796585599810239e-01,1.439491728568788875e-01
-6.257829844210111014e-01,-6.643216252699372937e-02
-1.847356126959806555e-01,-2.572929057026305255e-01
-2.058372228137138049e-01,-5.919247001839554878e-01
-2.856518215897308477e-01,-6.382361823827032987e-01
-7.513417557471930852e-01,-6.721014426194626967e-01
-1.195673492669026672e+00,-5.062907556955955624e-01
-1.254342040971300198e+00,-3.397419731502426266e-01
-1.145090272708292556e+00,-3.997470758375372135e-01
-3.078516788239148427e-01,-2.959505416765676467e-01
2.173765069562039187e-01,-2.114118084695865984e-01
3.215865300245112635e-01,9.739519582901283098e-03
4.352247939328645482e-02,5.756095915396691742e-02
-3.153190482597384992e-01,1.669617398674701214e-01
-5.051258150799307067e-01,-4.433958526315550513e-02
-7.041810096773618577e-01,-3.150570821960101964e-01
-7.328101760931406972e-01,-6.625978746806100439e-01
-6.489810227076492355e-01,-6.228787585915334102e-01
-5.789348981359710988e-01,-1.670161671351945154e-01
-4.274351794518286840e-01,1.589280660208672868e-01
-3.483395023885321184e-01,2.890484754082232044e-01
-1.838547221823764455e-01,8.428446162028233046e-02
-4.030181283851458907e-01,-4.268096082514002410e-01
-7.322076253898532894e-01,-1.199539554033540290e+00
-1.110080771151167989e+00,-1.693412589607445451e+00
-1.178083132579915038e+00,-1.701752698695827348e+00
-9.056384928802787559e-01,-1.100951512218972361e+00
-7.395997047910322086e-01,-5.668758554568856800e-01
-7.307443043832841933e-01,-1.233909588166538646e-01
-1.052758743450819656e+00,-2.059414055342905225e-01
-9.196921624109494209e-01,-1.378184727152252376e-01
-1.198255581120100777e+00,1.356494188263481504e-01
-1.664397900420037546e+00,5.776295724051244695e-01
-3.391046278416800064e+00,9.613908843809667593e-01
-3.147944437714683019e+00,5.886116136392298692e-01
-2.517415460048862741e+00,4.160664336627730719e-01
-7.983023312037657027e-01,4.832080638976626874e-01
-6.341353436684078471e-01,7.752864688813898564e-01
2.819579788422945654e-01,1.875815624261518266e+00
1.975903841974881336e+00,3.537033546907895065e+00
3.464320373954989041e+00,5.489449321355132305e+00
4.495173625700588538e+00,6.541546595972990374e+00
4.527248759254362653e+00,6.237508655272081093e+00
3.493789401935042171e+00,4.672157554163762327e+00
1.743491920184939703e+00,2.359317099552510566e+00
1.821685459528191720e-01,5.816305638013415935e-01
-7.692533479523260276e-01,-5.940864154728879853e-01
-7.043378345160662413e-01,-6.282488839664007729e-01
-7.066456247488397402e-01,-7.889473238481696793e-01
-8.484266182245925325e-01,-8.629289799625380342e-01
-9.478657303367236109e-01,-7.193964364399054734e-01
-9.285923376193871981e-01,-7.200095171374968350e-01
-6.068985484400689634e-01,-9.784320915131328178e-01
-6.955767131320128582e-01,-9.772468979594892691e-01
-7.987638911905561301e-01,-6.416837044721487304e-01
-7.689797115313770082e-01,-1.206539857242199809e-01
-2.054847666291183816e-01,3.728227445094779019e-02
3.185793801090429089e-01,2.404213537824074765e-01
4.245717150406901896e-01,5.672088840598801252e-01
1.090111318914601529e-01,1.274240233797210742e+00
-1.082319196905157099e+00,2.296236479235317152e+00
-2.593043933505173815e+00,3.459140484670409688e+00
-4.061821712334033663e+00,4.298906074088855611e+00
-4.636767082460269584e+00,4.601303153967380766e+00
-4.906782725029811942e+00,5.174457349041984067e+00
-4.640227095976759308e+00,5.654377914663559324e+00
-4.193580746919931102e+00,6.067547940606669243e+00
-3.185521917776129808e+00,5.567213695897423875e+00
-2.047866453453891733e+00,4.269193658375457723e+00
-9.218103447779065762e-01,2.489667633901357480e+00
1.566385649934212351e-03,6.372584944418712150e-01
2.538499922994168490e-01,-1.020565445738112337e-01
-1.148763273596802997e-01,-3.436297798887203991e-01
-7.430414308806606583e-01,1.422836718202470097e-01
-1.002104617315758617e+00,2.446427326876631503e-01
-1.264182353041517048e+00,6.376999286424408497e-01
-6.053122696324801932e-01,4.524613895916528294e-01
-3.080712561615348566e-01,3.642857914865500479e-01
7.867548721523417443e-01,-4.494318272959317295e-01
7.435156959984338121e-01,-7.702981507295864061e-01
1.084780340796065445e+00,-6.670368132501927061e-01
5.563557724505879820e-01,-2.398975174084467255e-01
-6.561252477286778906e-02,5.575418626152073287e-01
-4.775164695033449758e-01,5.035387017388418540e-01
-9.445914317433525831e-01,1.314108314012595313e+00
-1.279611446886754544e+00,2.035664019882158282e+00
-1.465240815027579968e+00,2.759391799056845507e+00
-1.126085883259832832e+00,2.570892475968538538e+00
-5.253311198634551538e-01,1.735940031210781109e+00
1.387054331743731717e-01,9.797320801943770752e-01
3.618387017024577990e-01,4.850800568145529623e-01
1.293938788884902713e-01,5.952400804967850068e-01
-3.816105902949195050e-01,4.993939131855916203e-01
-6.989716418003393272e-01,3.735964449149837274e-01
-8.430547769023594151e-01,1.289092175774952942e-01
-9.315164905003120444e-01,2.588948638139275116e-01
-1.227587705287995989e+00,3.752445694169548873e-01
-1.514233302283017224e+00,5.682140439538818644e-01
-1.431743858761133525e+00,5.494701665221117803e-01
-1.146035114745586503e+00,4.122127537561434685e-01
-7.689419787236176917e-01,2.003489222507772727e-01
-7.710697300819292499e-01,1.055136529328345868e-01
-1.047062415496891191e-01,-3.280953059169318120e-01
3.085613595418532085e-01,-6.127305587772411410e-01
5.712318244168113068e-01,-6.459356268647638011e-01
3.074299954592888962e-01,-4.044051883767147970e-01
4.161402335406842456e-01,-1.799039143570661248e-01
6.115372852963922856e-01,-2.181582373654082085e-01
6.832580976726123634e-01,-1.636876934240939219e-01
5.373224423793069304e-01,-3.550212144016222371e-02
7.527893032382965144e-01,-2.012098404328845624e-01
9.188924729038174810e-01,-4.736176840264321175e-01
1.326409863380883847e+00,-1.059419342749046589e+00
1.168839932107627932e+00,-1.261405072288741991e+00
9.841261667845301320e-01,-1.414323600771964839e+00
5.729123886735749682e-01,-1.533875794656396785e+00
4.097964362081045753e-01,-1.537894663396344619e+00
3.685030961607866917e-01,-1.415674898528610726e+00
6.988998589203515577e-01,-1.182151710497979291e+00
6.826936310888849224e-01,-1.036994657221547378e+00
7.927923174015274466e-01,-7.126875592556097816e-01
6.829038893715129177e-01,-3.073824177643316169e-01
1.001682793954100426e+00,3.712170713712956704e-01
1.152001427485128682e+00,7.122349613017204817e-01
1.343561760502214986e+00,2.026715424226455953e-01
1.320385042914067553e+00,-3.952014352168412015e-01
1.290675426993713959e+00,-5.963161929810640860e-01
1.251390674217557786e+00,1.356693591699370538e-01
1.017593344848388259e+00,5.779527188011297500e-01
6.072338560173019539e-01,9.627083364915700603e-01
1.538739164316073049e-01,7.899816885863116811e-01
-7.134671609747637866e-02,1.004582946533917553e+00
2.252797445022572675e-01,8.732677481856894186e-01
5.348682621861848840e-01,1.553424033533194359e+00
1.111634749446330117e+00,2.247428300141766755e+00
1.306815663173545694e+00,2.356747563722420669e+00
1.442785690542074395e+00,1.687690353629161422e+00
1.051778452110713413e+00,6.412605474118873161e-01
6.381930478016781816e-01,4.431988110373927259e-01
4.462050400682182616e-02,6.006909841299157282e-01
-2.198794096375005225e-01,8.776167872393680902e-01
-4.146167477902765186e-01,1.443476289012346925e+00
-2.659384088771538646e-01,1.194160001175323949e+00
1.508257017090079144e-01,1.171044239710387069e+00
7.533610990323286183e-01,3.455267347950017331e-01
8.052395145126414189e-01,-4.791694937753109527e-03
4.389755330782060261e-01,-6.630757995021820117e-02
7.775575681256806371e-02,-3.081449443482199291e-01
1.211282110851931437e-01,-7.076764757718002619e-01
2.966715921106988785e-01,-9.149874073075704439e-01
7.092399593937248614e-01,-1.099000884977108683e+00
1.795058163637319515e+00,-7.422531563608500971e-01
2.754261619373307379e+00,6.067111342589800449e-01
2.776473309656891431e+00,1.362635545868465137e+00
1.757566783094994367e+00,2.073988167934115001e+00
8.704825399239348727e-01,1.199608379087034882e+00
5.596748039496036720e-01,2.531306582476263722e-01
8.139132510846266433e-01,-5.428529951586998914e-01
6.975811482026361698e-01,-1.027019655373969442e+00
5.599413414472168560e-01,-1.034757926609244150e+00
6.332571757242539956e-01,-1.350714197113286552e+00
3.998581186700242984e-01,-1.154429379684129842e+00
3.998581186700242984e-01,-1.154429379684129842e+00
3.998581186700242984e-01,-1.154429379684129842e+00
6.977354408310423306e-01,-1.478035177634185349e+00
6.887433660244530742e-01,-1.369219670388129861e+00
6.703646472134664469e-01,-1.501639705263707159e+00
5.041195000959516337e-01,-1.083840759359412598e+00
1.842219255906504261e-01,-1.951219701384705463e+00
-5.320358982182785690e-01,-2.344316010663983096e+00
-1.289985859165225568e+00,-3.163041210383223056e+00
-1.253775925043429273e+00,-2.495982430612632808e+00
-1.917098148291381143e+00,-3.202820751964671864e+00
-1.989045470986812836e+00,-2.603857384187493462e+00
-1.972711440538199579e+00,-1.938250094818875224e+00
-1.211700815461398184e+00,-1.098019670584614138e+00
-2.114054285821571622e-01,-4.248754721262679723e-01
1.135267899599394781e-01,-5.093442799301024504e-01
5.211904760546100940e-02,-9.937636315674157617e-01
-4.365145242611302989e-01,-1.000910830797097528e+00
-3.442933256997364744e-01,-7.096829197765052166e-01
-4.923817921282048760e-01,2.943209375552963483e-02
-6.720393871536887165e-01,1.020802088935917340e-01
-7.701527411303827897e-01,1.369456027852075097e-01
-7.783955556694028832e-01,6.130905986884133303e-03
-2.436422924092249143e-01,-1.875434537450474393e-01
-3.673654151154498448e-02,-7.182695885586846962e-02
-6.537210794598455332e-02,-2.489451008301256096e-01
-6.422503544124691377e-01,-3.103433401760911647e-01
-1.095764789496924019e+00,-1.234713695620069940e+00
-1.166593378466025177e+00,-1.375845192228529745e+00
-8.530296060369481070e-01,-1.472537463750532849e+00
-4.020397576015911079e-01,-9.304182336897648398e-01
-1.969619986558942323e-03,-9.139039368687251752e-01
2.689234052948122344e-02,-1.176115361051213615e+00
2.815291436158754435e-01,-1.057680147235134482e+00
2.926908837527823493e-01,-8.095415820106782734e-01
5.758776154438033368e-01,-3.347748373006161349e-01
2.904017163147051828e-01,-1.787574722192947219e-01
-2.821778775983270204e-01,1.320435855183862139e-01
-8.976367753530221094e-01,2.924845067204077109e-01
-9.235729183670547959e-01,3.611135247765282497e-01
-7.039492017147160885e-01,2.799161992740955007e-01
-5.474363937489830079e-01,3.778748390973167559e-02
-5.105552304379475936e-01,-2.548436664909045635e-01
-6.966409655462720840e-01,-5.549901749795521644e-01
-5.416507952658226044e-01,-7.792996108323166915e-01
-5.540978640817852963e-01,-5.990111210129936969e-01
-6.796090227572565423e-01,-3.468276781425564184e-03
-7.459708835812349781e-01,4.087686396658668508e-01
-5.073228434654216690e-01,3.704898735813104693e-01
-4.410080784602841281e-02,1.552689181456228806e-01
4.129975016692257750e-01,1.458594300220249496e-01
8.399093030534722226e-01,-3.488054695223250477e-03
1.121326551683559103e+00,-2.697639724099499814e-01
1.207950093880048037e+00,-7.230540498720289255e-01
8.044053111153811608e-01,-9.406808189165343226e-01
7.250161187162457166e-01,-7.765216240941534842e-01
6.408136519774704221e-01,-4.551125579856969972e-01
8.575330593554084668e-01,-1.932533614646744224e-01
6.763420866213527560e-01,-3.088793631930274869e-02
4.252750203443028121e-01,1.206637401359858114e-01
2.940843165098063275e-02,1.973260017057446858e-01
-1.016102637843607354e-01,1.583471862421207939e-03
-3.289362576209706734e-01,-2.645885836767645216e-01
-2.045568236912153337e-01,-6.866511177081736639e-01
-4.727160564403200538e-01,-5.370662399122335673e-01
-8.677561418688703454e-02,-9.005545428417860432e-01
-8.999409573110840610e-02,-8.169579825098542969e-01
9.644239019643592592e-02,-1.004704221681064213e+00
6.211084689861838537e-02,-8.062316704914990195e-01
3.679691677991708265e-01,-7.129031695638127220e-01
6.592343237007184387e-01,-6.357423907614303538e-01
8.252348992510937231e-01,-5.659339209484590683e-01
1.013594272090278414e+00,-3.937877413966169304e-01
8.364888836964986529e-01,-4.353099480246379605e-01
1.888560950072808442e-01,-1.462841825302300079e-02
-3.742119314474544045e-01,1.971155137057887530e-01
-5.584363951415955984e-01,3.916089164277939960e-01
-4.679820273563093935e-01,4.387695471721470564e-01
-2.009646331303295008e-01,5.995844939264323159e-01
2.687398210830369005e-01,4.899153966023320206e-01
5.409579057407906122e-01,3.178564047306647877e-01
6.803569497192882842e-01,-5.037509215351142489e-01
2.358986640397349732e-01,-6.983911742862319860e-01
3.585469001398706168e-01,-1.292226547639633738e+00
7.881223747916312750e-01,-1.667503079347469441e+00
1.278808199444175786e+00,-2.109847502999076418e+00
1.351645896282712256e+00,-1.954303059308917456e+00
9.847686182574625358e-01,-1.382083067909557705e+00
4.007172031793176381e-01,-9.726624416126969930e-01
-1.242816089331603285e-01,-9.167314370913518529e-01
-2.926158438640708570e-01,-1.090092248172247480e+00
-3.555285015794312220e-01,-1.290506538079199350e+00
-1.494214768808914406e-01,-1.209663891609782160e+00
-3.937716769885388768e-01,-8.895001194725424831e-01
-4.174622317597351806e-01,-5.447370991983936372e-01
-2.950577105988039794e-01,-6.598807820406265012e-01
-2.254965110881110846e-01,-7.016747177863328355e-01
-2.676064111357898678e-01,-4.289583901969955537e-01
-4.444425512252517252e-01,-1.076940951299910562e-02
-1.973459972008907437e-01,1.278339694395171922e-01
-1.925416796493524887e-02,-1.396516899098176057e-01
-1.978999416432198066e-01,7.816003591505651937e-02
-3.576631147430607838e-01,2.333037997765010363e-01
-4.369401139452314120e-01,3.656663460552463940e-01
-6.285192537820691872e-01,1.132607871258727306e-01
-1.015348654000070017e+00,1.315372841800293569e-01
-7.071484454479517456e-01,1.416023354322226702e-01
-5.697040147285127309e-01,2.251926649023940075e-02
-5.068545077559948736e-02,-4.056361971012978906e-01
-4.826853724355633646e-01,-3.551337532445328904e-01
-1.574677527673668809e-01,-5.409364508262226590e-01
3.793241464364154880e-01,-8.278413563966664501e-01
8.848858350443444820e-01,-1.239665060500798166e+00
1.097989952080858256e+00,-1.557323966317606834e+00
9.507488730855806480e-01,-1.420124421025026784e+00
6.457220586460007405e-01,-1.194946177667750797e+00
1.678781315600520185e-01,-7.447828607706974413e-01
-1.259358203575829671e-01,-8.098833409755950008e-01
-3.133300115117115259e-01,-6.303449678078338891e-01
2.952020560019862350e-01,-8.312577317393743392e-01
3.876350461593910945e-01,-7.753079970649698893e-01
6.034065119968743396e-01,-9.711965362787723377e-01
4.319615243081219580e-01,-1.217849293421317647e+00
3.845747945551241664e-01,-1.370536512562238407e+00
5.307569619991939769e-01,-1.510561949591494146e+00
8.003151476592318403e-02,-1.078907952762661049e+00
-5.449764394429049696e-01,-6.541888983861674500e-01
-1.268543511201370544e+00,-2.288298487572894280e-01
-1.329731645507002513e+00,-4.797220878854280834e-01
-1.101784748336649633e+00,-5.405953681748829620e-01
-8.444762023350849134e-01,-4.611864553161982849e-01
-4.794766894692291670e-01,-1.730060573501152887e-01
-3.470289132917593333e-01,-1.045849067795134868e-01
-1.822336831027842885e-01,-1.975017910923126258e-02
2.966057282586408439e-01,-2.455110215636661375e-01
6.294728076732231115e-01,-4.280303964437292413e-02
8.898582044947380698e-01,1.809326053990346558e-02
1.133342498667498921e+00,7.675715948318470039e-01
1.612195646484111400e+00,1.877253225238155743e+00
1.612195646484111400e+00,1.877253225238155743e+00
1.382148239871225925e+00,1.414408616328534540e+00
7.587338240998861005e-01,-1.511836961305697280e-02
4.913128750431847713e-01,-6.586405524910976528e-01
2.490825957680880831e-01,-1.265364735654263662e+00
1.277162253461534003e-01,-1.462227489739822195e+00
4.677215277044369790e-01,-1.074181394514051480e+00
4.809253400066695883e-01,-1.038997329675382053e+00
3.942263477113128189e-01,-1.212600580872700951e+00
-3.643794687794111309e-01,-1.767924338576888355e+00
-1.026702847951197928e+00,-2.270070383029603622e+00
-1.575274259188939041e+00,-2.708422435027757480e+00
-1.516015911137526651e+00,-2.732254395337882169e+00
-1.418828315672260310e+00,-2.707824959692743949e+00
-9.065120946597694518e-01,-1.916614692190038660e+00
-9.014197525523613974e-01,-2.314371993868242772e+00
-3.139189795668376193e-01,-1.971588070317852326e+00
-1.833207660312114184e-01,-1.359188436486922003e+00
-4.554992832538275194e-02,-1.249853043183265289e+00
-8.650955057415614380e-02,-1.021777275454059719e+00
2.042572359543315674e-01,-1.120544719984133852e+00
1.418801507370136272e-01,-7.698415311012423157e-01
2.144370602748863486e-01,-1.085018995164493516e+00
-3.125378725149154536e-03,-7.686596264764751218e-01
-3.449924224462130318e-01,-1.116492381328825778e-01
-7.017599103055669474e-01,6.792406065939377013e-01
-7.557869649293956771e-01,9.963876721925588598e-01
-7.076766041078388358e-01,1.006021843693494011e+00
-7.496584591530335295e-01,7.239740125743505672e-01
-9.014125445510816625e-01,2.422005368982224072e-01
-1.107386335139043831e+00,-1.321888839162781992e-01
-8.938580114259663256e-01,-3.975481256527844121e-01
-1.150233739626214335e+00,-5.660805077900108451e-01
-9.292967890094426808e-01,-7.830182900441176042e-01
-1.126596855553012810e+00,-5.214752444080146265e-01
-1.633338979728846674e+00,-1.974105055142216791e-01
-2.455031042552351384e+00,2.626809665839181518e-01
-2.862339151742313348e+00,2.821814660788030116e-01
-2.767327990528887671e+00,2.495382818811618386e-01
-2.151740782144119457e+00,-2.665522899546936622e-02
-1.221868544036771365e+00,-3.349532324276163764e-01
-4.588767065589333116e-01,-4.241578738629675493e-01
-1.047536965684448956e-01,-1.823135429743390212e-01
-1.267510455481382081e-01,-3.187748490868108631e-02
-4.148333178999856763e-01,9.186214178800912455e-02
-5.829653094235107691e-01,3.200651188074514399e-03
-9.263890477292545667e-01,-6.585798609973095297e-02
-9.263890477292545667e-01,-6.585798609973095297e-02
-1.152617589954895827e+00,-2.620228989325459890e-01
-1.305538124916996612e+00,-3.625462509378728493e-01
-1.263291393220570713e+00,-4.868651718054780586e-01
-1.308325023005094234e+00,-5.975939268850227748e-01
-1.276862384855444343e+00,-5.409890433695589973e-01
-1.462548600438823510e+00,-3.376183276742070194e-01
-1.173128718478163579e+00,3.973179230691929048e-02
-6.730084124986092098e-01,4.049796967699162420e-01
-1.071251369307904683e-01,5.123610162855117833e-01
-2.276610104151579814e-02,4.633206210073326226e-01
-3.630847467254599836e-01,1.997098024869187749e-01
-2.831913268840752784e-01,8.994505199404140630e-03
-1.806081310412127952e-02,-1.622972275694766486e-01
4.364889808117305425e-01,-5.139552358207006844e-01
8.297602769572036407e-02,-5.041341074208545159e-01
-3.477212184810990481e-01,-5.275510775070904046e-01
-5.337192019399484844e-01,-8.949582737905256713e-02
-3.785767239780162829e-01,-1.507981179391934823e-01
-1.228448694028369537e-01,3.183761536369779654e-01
-3.446109812886528623e-01,6.512808506151910315e-01
-4.848837745900881901e-01,7.883912229278428052e-01
-3.708090022245097428e-01,5.685019255742040922e-01
-2.165962500906175314e-01,3.171760442125249324e-01
-1.723075824009377144e-01,-2.096021831176720848e-02
-1.546749004771369174e-01,-3.146187744447680457e-01
-8.865959875264670109e-02,-2.533389004758203611e-01
8.676885052706659329e-02,-2.684380956054974177e-01
2.757595599511744600e-01,-4.131991705300183670e-02
6.673992210351297194e-01,8.432628140442773035e-02
1.126629162464914513e+00,1.199601944661900094e-01
1.398460002299178884e+00,4.371616787172372121e-01
1.389519599365002911e+00,6.225730262968477424e-01
8.879150495299432677e-01,7.524552424925271543e-01
4.497301738983348618e-01,5.106193038911006621e-01
8.855488394978933142e-02,2.716013743705376071e-01
-2.813986773227157290e-01,2.422839602200321102e-02
-5.329768013878137811e-01,3.604047725836511673e-01
-6.984578852032334861e-01,8.225481804017440446e-01
-5.705011305707990976e-01,9.242217884398025163e-01
-4.590056099013383739e-01,9.041118464735116156e-01
2.050999489066999693e-01,1.722241321302513395e-01
4.397881157428691901e-01,3.281224023951783142e-01
6.182383766238439549e-01,4.446901003695645782e-01
6.508217006627683432e-01,4.830777123696411990e-01
3.166285124767738157e-01,3.803900953486897274e-01
-2.009452609177467264e-01,2.775379898629283804e-01
-7.583281552701020001e-01,1.973910960478490739e-01
-1.184127964228519403e+00,4.195739805408074119e-01
-1.625729455146398328e+00,5.665454334839382655e-01
-1.674023384305586060e+00,5.864466290437035934e-01
-2.176102262792164677e+00,5.923360132293701286e-01
-2.892632422310319917e+00,7.355213567220693083e-01
-4.258295477188173805e+00,1.029805838107134219e+00
-4.298455009618812994e+00,9.030287130973058130e-01
-3.376223316927525975e+00,5.202872751960488928e-01
-1.572940261869728795e+00,6.355699380867849135e-02
-3.296676745711843437e-01,-2.310859769602146840e-01
3.349060385976588838e-01,-1.290525563867917225e-01
1.090798243382640864e+00,1.309500429287381367e-03
1.440873731829548365e+00,2.970380845446087270e-01
1.312431420600844945e+00,3.475140297363207287e-01
6.824577110323055695e-01,9.192164288358968260e-01
4.279467404312485290e-01,7.976437486287483170e-01
-2.279872773546483544e-01,8.177453774899259287e-01
-3.241167219299214697e-01,5.548512359145016948e-01
-8.539564950823022027e-01,5.663352175841954717e-01
-1.048680602365292147e+00,8.964206627420522322e-01
-1.587980794266923068e+00,8.996694610427924399e-01
-2.170597333849545674e+00,1.234389095580749496e+00
-2.645905502115600605e+00,1.151583134797043773e+00
-2.512220525738620758e+00,9.083737838411223287e-01
-1.946845802792745994e+00,5.361567606518758966e-01
-1.132610033899409396e+00,2.211302191678386486e-01
-4.768390060795322238e-01,3.951901461154441741e-02
-5.249145882453392087e-01,1.504860919287615006e-01
-6.819419201858636370e-01,2.040021596749416466e-01
-9.392941645299774933e-01,9.837370525125797016e-01
-9.375110900312685347e-01,1.268526568316836300e+00
-7.930335394052147047e-01,1.172855372274797636e+00
-8.064051896662782770e-01,3.509624951513565239e-01
-6.647924743115892765e-01,-2.667577333212344248e-01
-4.501889559333414059e-01,-5.586778712214007792e-01
-4.390840930217165816e-02,-5.852923021691587291e-01
7.004672758112530095e-01,-5.743557155784034807e-01
4.427460669487675027e-01,-1.631400259439720335e-01
2.247114663219801356e-01,2.068447975355786894e-01
-4.267494923978966681e-01,4.728273882079540580e-01
-2.871647149506854624e-01,6.750438505027953617e-01
-2.198794096375005225e-01,8.776167872393680902e-01
-4.146167477902765186e-01,1.443476289012346925e+00
-9.112199690389066742e-01,2.542029086424727691e+00
-1.608887929870824296e+00,3.780323026676235543e+00
-2.361739724721343414e+00,4.939307460972563568e+00
-2.449088248505797427e+00,4.726252239373163633e+00
-1.984580485614643841e+00,3.368306148302865122e+00
-1.322312672075681927e+00,1.382347204944846197e+00
-1.017904329833914989e+00,1.835312269430225129e-01
-1.160618345332046886e+00,-5.637205187777086929e-02
-1.445257178291627698e+00,4.232127842677054219e-01
-1.757212615079165818e+00,7.347256249221578717e-01
-2.118678102867789903e+00,1.084310116601685081e+00
-2.197215735874513243e+00,1.182221144163361215e+00
-1.894939372147778300e+00,1.056680519393802031e+00
-1.655730797731034043e+00,9.444295288508477437e-01
-1.497959120846785286e+00,6.268688237346631276e-01
-1.590378600071433279e+00,9.857345946350950516e-01
-1.398083470699148956e+00,9.175760406704364103e-01
-1.128226608688675414e+00,8.241053311499807466e-01
-1.005518008862070989e+00,2.753790002789924807e-01
-1.362627997676013170e+00,1.561806976486829479e-01
-1.217273599262576722e+00,2.556789129522263893e-01
-1.569141587416321482e+00,3.747335103761533781e-01
-1.772918741224519978e+00,4.572559202075967000e-01
-2.442673774346131754e+00,6.339134607776673036e-01
-2.423075730230299651e+00,6.080727016203572033e-01
-2.101731576060353213e+00,6.380078414594871905e-01
-1.431101542121511860e+00,9.189973429390896342e-01
-9.574891881340740207e-01,2.309099350894615377e+00
-5.180907030852054396e-01,3.941361627832254744e+00
3.272124146073087519e-02,5.322353757426395049e+00
2.630040517124208055e-01,5.813301714232355089e+00
2.599237773698740428e-01,5.488018856507501653e+00
-1.865120353620551008e-01,4.359963179964513103e+00
-3.906521634586870850e-01,3.149119402994126737e+00
-5.800810591200376010e-01,1.928446955351081904e+00
-4.906734387177947854e-01,1.477429678335631325e+00
-7.363747879856803458e-01,1.165840810861831223e+00
-1.161366337140970817e+00,1.401410918043166864e+00
-1.508349588310598621e+00,1.767132326159440048e+00
-2.640885830953868307e+00,2.731276993745357817e+00
-3.898918409311131761e+00,3.476170950087082101e+00
-5.217818813449003557e+00,4.100113293252408475e+00
-5.057728262906643124e+00,3.486873367492785647e+00
-4.014560347602601276e+00,2.550352032920727652e+00
-2.141813815106219376e+00,1.164254737488012337e+00
-1.400517164973851258e-01,-5.137242663955132738e-01
1.043682738927091291e+00,-1.751771739960177543e+00
1.624317649170345934e+00,-2.611047422191236755e+00
1.965471785308142705e+00,-3.017697617306928759e+00
2.038081815361994842e+00,-2.971405951986157312e+00
1.620549004032213469e+00,-2.272646253266800365e+00
1.162670741353135195e+00,-1.551031277318047019e+00
6.076068560278409247e-01,-7.972352373907088952e-01
2.551989052629574095e-01,-4.455558055175995458e-01
2.042408763343043707e-02,-1.332286183312235417e-01
-1.490431348440179604e-01,-1.260211536365476830e-02
-3.996397734540621527e-02,8.105178506074074696e-02
1.181390969820105830e-01,3.410984554236459743e-01
7.676523009660511654e-02,7.788614933456801115e-01
-1.928431032295151448e-01,1.259359119277707162e+00
-5.709049726913062450e-01,1.762935624998066775e+00
-8.108714209800316208e-01,1.710240825989977287e+00
-1.071471093580126599e+00,1.646354058166584755e+00
-9.788041580657856899e-01,1.101442171973495476e+00
-1.256344016910001526e+00,1.093364746370950380e+00
-8.591878673963109225e-01,6.797363623029865076e-01
-4.357477264366634295e-01,-5.019733815870507099e-02
-6.995605127084333352e-01,2.214501698980878286e-01
-8.239676995180295060e-01,1.644620410689356937e-01
-1.242479788505806759e+00,4.287818998803480386e-01
-1.031303409224857637e+00,2.113339967562368749e-01
-9.700109465493573779e-01,8.174134341289751235e-03
-2.853288879902202702e-01,7.964389901515936399e-02
-1.694604607760277215e-01,1.405679147591372413e-01
-3.370989184879332190e-01,4.093137494687676403e-01
-8.970034665161658038e-01,3.792812437144867377e-01
-8.361612954696586719e-01,2.392698494529471032e-01
-1.029238358131451481e+00,3.360780989657043971e-01
-1.817548194568565867e+00,1.289890872314568282e-02
-2.501112469118245141e+00,1.581958995085974706e-01
-2.653734454024279099e+00,1.101874373152172959e-02
-2.043599099533982777e+00,2.156480594268479767e-01
-1.595716139051333915e+00,2.106713077962278635e-01
-1.239597815203402176e+00,1.920080299189192430e-01
-1.454635945014072673e+00,6.184643405390699566e-01
-1.668896755256412234e+00,1.170741540856559126e+00
-1.848574799116542655e+00,1.689974001419248806e+00
-1.547976569118409751e+00,1.726115212626616158e+00
-1.186573470059683721e+00,1.385018893029458242e+00
-7.952338862422010379e-01,7.783077898840150555e-01
-6.325208516538928238e-01,2.524058650416353133e-01
-4.086366953588004280e-01,-7.995347330539606667e-02
-6.297841328458020360e-01,3.129973021318911419e-01
-9.789501463507510604e-01,1.043197661830390865e+00
-1.402231232246728077e+00,1.875855502197870894e+00
-1.864046064686066373e+00,2.504597134972405215e+00
-2.171507463493841605e+00,2.726571278405690357e+00
-2.152760313633061973e+00,2.206261571740999461e+00
-2.035266689507662985e+00,1.876608029702915736e+00
-1.582886254605359255e+00,1.126350324269386416e+00
-1.307309084748114136e+00,1.125188797493361648e+00
-1.010521104227512623e+00,7.093052011205838170e-01
-8.129996602339144562e-01,7.277758017605151508e-01
-4.900418198771023803e-01,3.824731438228534119e-01
-1.125654796689106590e-01,1.527195836440336726e-02
-7.526970742933714563e-04,-2.230059419193884673e-01
4.344185601291057353e-01,-4.938439476675957063e-01
8.058391183849624717e-01,-5.795847830314783122e-01
1.044372770276915219e+00,-5.294218460636387347e-01
9.691021905509328294e-01,-4.219585888767080628e-01
6.931115666318692359e-01,-3.612587021082305783e-01
2.022992694703647232e-01,-2.012158210514720380e-01
-3.364765850546625470e-01,2.495212079402565203e-02
-6.820145666102456206e-01,2.292362527455758803e-01
-8.696131336360827246e-01,1.559347734974266542e-01
-9.425927721367247658e-01,7.445359067544826681e-02
-1.241868313874655350e+00,2.123824650955704052e-01
-1.164482108916254255e+00,2.691573850184703631e-01
-1.072972062323901854e+00,-3.858901015795523914e-02
-4.119477311277556231e-01,-6.742251647608141774e-01
2.235210737865181430e-02,-8.122958845204961698e-01
2.779462576861176136e-04,-5.293291805289657148e-01
2.647254453572641664e-01,-4.266770590901390880e-01
-1.309696506890238310e-01,-2.126394147934083378e-01
8.110333227733522721e-01,-4.889882573798581822e-01
1.103239784649993060e+00,-4.806460478408794978e-01
1.800329577765001243e+00,-1.071160179788225530e+00
1.583296961089841082e+00,-1.303860694619882743e+00
1.377207108070525265e+00,-1.615824178670085987e+00
1.305195064808131855e+00,-1.661822422207745342e+00
1.111575039943584420e+00,-1.683487933286484717e+00
9.194251697611057761e-01,-1.620160658780996021e+00
8.770250314014388371e-01,-1.099195184708194217e+00
1.272997626484570599e+00,-7.915706462525599063e-01
1.731018208972982420e+00,-4.717858804938286355e-01
1.717620801516727358e+00,-1.511208893055840941e+00
9.952632285924880584e-01,-1.580943847653267564e+00
5.365788392888862779e-01,-2.401007791328843677e+00
5.365788392888862779e-01,-2.401007791328843677e+00
6.784074569996193516e-01,-2.503343607954230610e+00
9.325258746856877057e-01,-1.405017733994562423e+00
9.982296116237190375e-01,-6.250810627122942442e-01
1.451761995805533445e+00,-4.183346816370883681e-01
1.710880161375323949e+00,-5.934546775309254008e-01
1.777122537182894702e+00,-5.004198552400044298e-01
1.205597400700146871e+00,2.229625733493398321e-01
4.381479942265127936e-01,1.172236017979791045e+00
4.363261118051773302e-01,1.623647923844315333e+00
5.410080593257016179e-01,1.553110601566196403e+00
9.222840844385845616e-01,8.172757559563021967e-01
1.138379660396798609e+00,-2.051692447185259893e-01
8.381310688260513730e-01,-5.100470332259623429e-01
1.112384054443762205e+00,-8.824869363291332203e-01
1.262048668291111175e+00,-6.264568298047686890e-01
1.652836125459426819e+00,-8.134010587742906973e-01
1.437583853107428977e+00,-6.005577062769072993e-01
9.766377800129487641e-01,-5.810920866084352543e-01
7.649079524344302161e-01,-5.866758002949523654e-01
6.836910879548331321e-01,-6.906845087829664998e-01
6.100874703895289297e-01,-6.173662297612930727e-01
3.349000467814879922e-01,-5.281527155560864495e-01
9.100545886710941224e-01,-5.182783290624839445e-01
1.482422430768289612e+00,-6.567383703529284800e-01
1.648301132731797125e+00,-4.993245236934684139e-01
1.380205655460429837e+00,-5.359167159806438319e-01
8.905821722248596917e-01,-4.878427843969233013e-01
6.899751248894540057e-01,-7.965979385747259389e-01
5.033347861659647204e-01,-9.560704047676458206e-01
2.230211177593732497e-01,-1.127538264596559259e+00
-5.773394977754088553e-02,-9.039784865633293531e-01
-4.702716633794351564e-01,-5.672146364539083496e-01
-3.313687632905170655e-01,-9.522728409979228092e-02
5.841173767672737382e-02,-4.712453721702841158e-01
7.075124271011520305e-01,-5.758032912397358372e-01
9.203300244710077571e-01,-6.954864012848620547e-01
1.360481204072407246e+00,-1.884939934100704484e-01
1.814676897278204803e+00,-1.539194229083655323e-02
2.186484738643766690e+00,-1.045092181050745056e-01
2.232639528103271598e+00,-2.846986655913677500e-01
2.196291498855281077e+00,-5.599543984293946508e-01
1.777122537182894702e+00,-5.004198552400044298e-01
1.659076913120272501e+00,-4.093508859346843831e-01
1.768307033606105305e+00,-2.615662777808190342e-01
2.089727562151518558e+00,-4.458504904442891492e-01
2.196291498855281077e+00,-5.599543984293946508e-01
1.777122537182894702e+00,-5.004198552400044298e-01
1.578584241984438252e+00,-9.535256477415825216e-02
1.387679748508404254e+00,4.017275910500437974e-01
1.303701023079873345e+00,7.058320227310855843e-01
3.360725355229989830e-01,1.167916229997646216e+00
1.150587206259830741e-01,9.764832233521998361e-01
-8.744397141374479765e-02,7.834605849892584128e-01
7.215370717799963751e-01,1.970786760555904293e-01
1.705604441017569972e-01,5.583903583104630197e-01
-1.023809939667404134e-01,1.076228633343805585e+00
-2.025762606148012956e+00,1.572420345849525392e+00
-4.362508669259451466e+00,1.822355354534650251e+00
-6.811952764463467425e+00,1.706959045972349598e+00
-8.232634399550164517e+00,1.698308916954550885e+00
-7.946464686147851175e+00,1.539673269744429307e+00
-8.220045174894332618e+00,1.455273096761262819e+00
-8.404171694781219060e+00,1.240488584341250755e+00
-9.235377897116512358e+00,9.837635435337649392e-01
-8.274852885752538967e+00,4.693327183631365029e-01
-6.364390658660783018e+00,-1.557146309116283142e-02
-3.912226726183732683e+00,-2.013248945067799001e-01
-1.419280867605445806e+00,-2.728528620029088692e-01
-1.464657574809978824e-01,-7.712352359350238551e-02
-9.734253011438584458e-02,-5.186114078355369417e-01
-4.498148664737141589e-01,-9.302435283165617630e-01
-3.388570860885424807e-01,-1.490176620736435531e+00
-5.755135266881115097e-01,-1.243982423158025652e+00
-4.156749965768691268e-01,-7.808758758774758668e-01
-2.043841531423935542e-01,-3.864361860657986036e-01
5.544044319703030910e-01,-3.284590560623587008e-01
7.371337502455983515e-01,-7.842454592828574933e-01
5.936360967655193166e-01,-1.172588256273134899e+00
3.528539900833042031e-01,-2.134113556563514535e+00
4.438009954671595092e-01,-2.687086749417574083e+00
6.657725581556993566e-01,-3.169355775387121099e+00
6.657725581556993566e-01,-3.169355775387121099e+00
6.657725581556993566e-01,-3.169355775387121099e+00
7.679513226878404986e-01,-2.829926651321086783e+00
9.551271411910257081e-01,-2.196349642877245767e+00
6.855424996002826843e-01,-1.476571810729169432e+00
3.397927343924223020e-01,-6.192663193501903862e-01
-7.219073489752179940e-02,-2.921322681838951496e-01
-2.080084856942701621e-01,-2.872104012730224420e-01
-2.221600251313462504e-01,-1.916381164071233323e-01
1.481975438965313918e-01,-3.788913167669132886e-01
5.058149157348867941e-01,-3.239365704152445957e-01
5.334776066792551452e-01,-2.270861242796994306e-01
5.349337804370593030e-01,-4.609282626283518064e-02
3.214280255072972659e-01,-2.515668551448457801e-01
3.754325205166736401e-01,-5.000769693149473838e-01
3.516412613570577550e-01,-6.634677825718006128e-01
4.253957109372507595e-01,-5.953463790870485717e-01
9.055107043615556739e-01,-3.011205535933182409e-01
9.965700544110503989e-01,7.060949489346635133e-02
1.486246065364884572e+00,3.670073789831032607e-02
1.537011489709975809e+00,-2.541704482908463958e-01
2.047305526573979684e+00,-7.515820504774138877e-01
2.000451878015393259e+00,-8.637159494193621390e-01
1.886809366219855955e+00,-9.710096969558388302e-01
1.505436656698948994e+00,-1.012701541887510492e+00
9.089000002763807373e-01,-9.155836024297510090e-01
4.978193404796147498e-02,-5.316688278425386605e-01
-2.310914336978129868e-01,-5.592748881583889942e-01
-2.056527528954707751e-01,-7.969720540088321981e-01
2.641200818184551435e-01,-1.376125749799568920e+00
2.453320474728453437e-01,-1.200976809674413781e+00
4.631486808493044394e-01,-1.553143961353439240e+00
8.629141646553605272e-01,-1.480304288127354484e+00
1.182753824203457427e+00,-1.475029640840659129e+00
1.335847103521616841e+00,-1.482869272368805058e+00
7.580509164042370518e-01,-1.098257965765869537e+00
2.165529116920600627e-01,-6.772449902010401201e-01
-1.881577329840886104e-01,-2.501192576896585917e-01
1.058031926801261818e-01,-3.180486925420064614e-01
3.237960014915663987e-01,-4.185106461264164746e-01
3.543730221215901088e-01,-5.305094359871633802e-01
3.244325914293629265e-01,-5.849176479927383765e-01
3.032633639759604871e-01,-3.190803230788175071e-01
5.564947225154303068e-01,-1.396018473105724855e-01
1.558511366590662679e-05,7.718819232564332333e-01
-8.814521664189940431e-01,1.616621937823866206e+00
-2.538095825603790878e+00,2.954603252747135755e+00
-2.538095825603790878e+00,2.954603252747135755e+00
-2.110247695148064206e+00,2.736802455295514580e+00
-4.198486284030533700e-01,1.375000232004877532e+00
1.694282665438260893e-01,1.358085206328957462e+00
8.489664831038171711e-01,2.059026185586033897e+00
8.569318057220380869e-01,3.867529718521887538e+00
1.436213592689342455e+00,4.346734830366460578e+00
2.187921234673418258e+00,4.939824945381948496e+00
3.044538656218312322e+00,4.651082660770130772e+00
3.288240580245819000e+00,4.832784829381232328e+00
3.061354543721823251e+00,4.281713758966378514e+00
2.322209560590536626e+00,2.569105226324660318e+00
1.126322211501305848e+00,1.143943646237323364e+00
5.513883668628266621e-01,-6.376518041786788382e-01
7.687043578778066655e-01,-8.138175513351257884e-01
1.451980297732926362e+00,-1.030467498996870734e+00
1.596716182874357459e+00,-7.725256574084055083e-01
1.253539080238510461e+00,-8.432390504206369597e-01
9.144318796543561279e-01,-1.007227035420381389e+00
3.435480099674977361e-01,-7.872675038854093366e-01
8.829336624092257169e-02,-5.141535054497878843e-01
1.898397676028644177e-01,-5.134610259337429872e-02
7.204529502882021097e-01,-1.785573973810315462e-01
9.457439519144688056e-01,-3.259955613423703435e-01
1.255616377876841216e+00,-5.201874869416831526e-01
1.658580136412825645e+00,-7.000851337411347908e-01
1.625031081599020544e+00,-8.551919160460128566e-01
1.230141526092879856e+00,-1.258037472354051722e+00
7.925930650301344915e-01,-1.912358884720709806e+00
8.203476064561643355e-01,-2.089215727375724363e+00
3.990709048836153516e-01,-2.015620552205838134e+00
7.914448872741587648e-02,-1.407428387204952891e+00
-3.639920271538236718e-01,-1.288772554393283309e+00
-3.819561162858968739e-01,-8.075859291889160296e-01
-6.003953622660400669e-01,-9.958490242911073320e-01
-3.277579478950948810e-01,-9.062095864890180597e-01
1.140881111961834227e-01,-7.435981181974864462e-01
6.033468011345552995e-01,-9.808676148529961170e-01
8.604792798305412882e-01,-1.319436005653951582e+00
5.215673425594946622e-01,-1.904629681906858663e+00
4.900046458620977569e-02,-1.675454998700086184e+00
-4.204290246618931914e-01,-1.312346660970147960e+00
-5.718811871319613438e-01,-7.071365075918037979e-01
-6.782964370657545983e-01,-5.639278461839867251e-01
-7.604361205708782823e-01,-1.807471098425765810e-01
-9.272676533080196348e-01,-4.344717129593748950e-02
-7.098293773750122826e-01,1.662421720135605629e-01
-3.962536499475634022e-01,3.232168744500675261e-01
5.057595454105404120e-02,2.116626272201649894e-01
7.582963487649151402e-01,3.966029296637558210e-01
1.243989545259535312e+00,5.536494793120363411e-01
1.309269589166736969e+00,1.154606690077428111e+00
1.020151657103554488e+00,1.476649874823014352e+00
1.650037862623205676e-01,1.862052455979091192e+00
-5.363320977510510623e-01,1.775677486699400731e+00
-1.217665593141694869e+00,1.540435447445311912e+00
-1.127056960119388274e+00,1.017393377897610751e+00
-2.102384473180844981e+00,8.702077711528641846e-01
-2.783166085483870233e+00,7.796423021474579995e-01
-3.402938029975545398e+00,9.402910616055490944e-01
-2.971869261262016337e+00,7.541766422127975655e-01
-2.377953549162843405e+00,5.476825102911375698e-01
-1.743455156921924765e+00,7.385997735628176131e-02
-1.132750795799443821e+00,-4.052153040287820307e-01
-7.989296012120232771e-01,-8.852534636402017432e-01
-1.920892379344059375e-01,-1.143247550371417010e+00
3.989128141494837632e-01,-1.305843498596522378e+00
9.611373576790162021e-01,-7.327058105406319966e-01
2.126269716455077674e+00,-2.653636686878706463e-01
3.222308393565661788e+00,1.991869158392050032e-01
4.268588804592854835e+00,5.463058637301627940e-02
3.784897835721231285e+00,-1.453127789215166166e-01
2.833871247546413397e+00,-7.255940134690375132e-01
1.250369904288321843e+00,-1.252334196889912432e+00
7.284320297394769606e-01,-1.791710835804381174e+00
2.214903772751249389e-01,-1.909060177900718358e+00
7.933816986846994324e-01,-2.140003180785035930e+00
1.530502295454784667e+00,-2.859842481216578136e+00
2.004192703019572530e+00,-3.697213562880439230e+00
1.704518393404051535e+00,-4.340574637700234994e+00
1.210931555864492415e+00,-3.889608243329539583e+00
1.026796628721362126e+00,-4.146708928834553554e+00
1.070560484789291333e+00,-4.427988120085383450e+00
1.408886565436913818e+00,-5.170224615025855286e+00
1.553001981571524803e+00,-4.695404486606705952e+00
1.841287568156859455e+00,-4.343794629972308030e+00
2.103936053144045193e+00,-3.571484185074458306e+00
2.342606546322333116e+00,-3.107832933426280864e+00
2.084356198740348276e+00,-2.123320355873562271e+00
1.859623975306698540e+00,-1.179664615052153698e+00
1.494680824870491476e+00,-3.598576305295911326e-01
1.668823739008461926e+00,-2.094151011321042644e-01
1.698162414257693209e+00,-2.396207125699148233e-01
1.963582775224932631e+00,-5.060796375444165385e-01
1.658208294817003159e+00,-5.907565782839430124e-01
1.717620801516727358e+00,-1.511208893055840941e+00
1.234009311679391319e+00,-1.774817416861857344e+00
8.577871784706130320e-01,-1.847928939510860014e+00
6.365787380276000107e-01,-1.530060475434010359e+00
8.080209512016984785e-01,-1.535436543658552422e+00
7.543335843319411982e-01,-1.761143889427222664e+00
1.006662176880757986e+00,-1.770459289857553964e+00
9.660565438840029717e-01,-1.571790012846722373e+00
1.629355774059848994e+00,-1.154452681469919861e+00
1.938114882349222245e+00,-8.632661862214717763e-01
1.900838800720967336e+00,-8.500788188052365024e-01
1.467674057650962594e+00,-1.048030976080706944e+00
1.282648522090427567e+00,-1.125041871010302508e+00
1.048415123020327577e+00,-1.318460782317007807e+00
9.470610318810960271e-01,-1.265325023428884421e+00
4.737866028485769876e-01,-8.028857521575517575e-01
5.401373575129393007e-03,-5.154106248160538195e-01
-3.082575271552916996e-01,-2.938176240031535325e-01
-4.159734020180889114e-01,-2.721545997010750839e-01
-4.458819370335315169e-01,1.530485672104403005e-01
-5.538402718922206258e-01,4.501684993709858529e-01
-5.802464559756553841e-01,3.595357985621324692e-01
-3.912145119178531139e-01,-5.460987905342073317e-02
1.247902212927592264e-01,-5.870319657294170712e-01
8.593922593833243084e-01,-6.071734665375433382e-01
9.786962239159309185e-01,-4.648139452539793437e-01
2.445595765277273070e+00,1.048805081969185649e+00
2.926500949846218447e+00,1.143527792676228394e+00
3.399559045233842447e+00,3.851872725389225982e-01
2.235463101779989081e+00,-1.995434857455723243e+00
1.757861123945633874e+00,-2.471068434377006184e+00
1.238459047731431006e+00,-1.281227879888767518e+00
9.333685980788483105e-01,-1.168141481015355782e-01
8.585811146562234430e-01,2.006081568983294691e-02
8.500710704719748323e-01,-5.811446810879753455e-01
9.913834894463146030e-01,-9.068494226669810976e-01
1.040075884378314885e+00,-9.174869916938671599e-01
1.187795039199379898e+00,-9.427209354729129132e-01
1.326409863380883847e+00,-1.059419342749046589e+00
1.399863983564969772e+00,-1.178209651409023451e+00
1.499566375807939167e+00,-1.146396623563205708e+00
1.436985951998098310e+00,-1.032753178775902114e+00
1.234872461293110568e+00,-6.777885442257616244e-01
9.078404606638823537e-01,-1.753242312591103413e-01
6.280448600901499256e-01,3.239609487603135884e-02
3.495372387526643476e-02,1.664737340173121083e-01
2.123056388840039721e-01,-3.315248840854751466e-01
3.878695604786074336e-01,-1.014914260715431338e+00
6.445172833784519328e-01,-1.493874179746620623e+00
1.160634453188487750e-02,-1.290786329565009938e+00
-6.363859654533490229e-01,-7.448645216781203393e-01
-7.952081982574955576e-01,1.275642793244127771e-01
-6.722165706200315949e-01,1.113209201965215112e+00
-6.129493847450590005e-01,1.719622594670988658e+00
-5.965519093499223047e-01,2.045038256842621305e+00
-5.525523884705828559e-01,1.498927967401995964e+00
-3.998746263344419294e-01,5.883534251268663917e-01
-5.381178101281419018e-02,-3.015335054501004364e-01
-1.650229575879239713e-03,-6.825887862033942488e-01
8.747035255600109013e-03,-3.240030265974278012e-01
-1.959594469610144718e-01,1.222225186210107589e-01
-1.776267450808236351e-02,4.865514417629514532e-01
5.589594819828387351e-01,6.960219486361609587e-01
9.603802927559600411e-01,3.833558861498456150e-01
1.122541576806349362e+00,2.304142530548417278e-01
6.667952799318684898e-01,2.545345451388217883e-01
5.253925409999840035e-01,1.605657218264830710e-01
7.657611926370806732e-02,1.525466011220779072e-01
3.757244527331509709e-01,-2.997092897215761220e-01
1.892095162178999423e-01,-1.842894919032841139e-01
5.934267803957238296e-01,-8.312550665067284239e-01
4.045783919207693313e-01,-1.820746056983345573e+00
6.592489203987911273e-01,-2.448310567694565787e+00
1.751205473004794899e-01,-1.938143004892828758e+00
3.232808723074729884e-01,-5.662377142243881778e-01
5.479066199888711353e-01,5.375745345829855415e-01
2.104775228915013674e+00,6.965706302840170006e-01
3.636886935637596796e+00,7.523646631376720295e-01
5.105646039621669630e+00,4.917182101018516827e-01
5.540084481788190907e+00,1.136611015569915645e-01
5.357118448442825809e+00,-3.008366006617105293e-01
4.242081745585067232e+00,-5.655840422890513475e-01
3.215692278677346749e+00,-6.959109998772944339e-01
2.015363662928304933e+00,-5.941400596295663972e-01
1.285884677133235288e+00,-5.733023546385126457e-01
6.669353041728733889e-01,-3.362910294943958767e-01
6.151199711061546838e-01,-2.418338721543802639e-01
8.673249340229947091e-01,1.541550878416191039e-01
8.916920052199983626e-01,-1.418611399361729419e-01
4.921312472366983215e-01,-8.668509033708550471e-02
7.472619242549498331e-02,-2.078808938742414125e-01
-1.798678049995139916e-01,1.264497920704675260e-01
-4.409941650276028025e-01,7.950760722932256885e-02
-7.422449818969550916e-01,-1.270904696971237036e-01
-9.836942309508085458e-01,-8.568948190572035495e-01
-9.251318366074764432e-01,-1.866035166751550234e+00
-5.721308900333137437e-01,-2.794491737190902825e+00
-1.291350112565881059e-01,-3.233342016551612463e+00
3.810475213883700585e-01,-3.214445178211751131e+00
7.468085241148726405e-01,-2.632553611597153065e+00
1.001234170154494230e+00,-1.517322421689960787e+00
1.062143655652795449e+00,-7.213229339248656835e-01
8.395564899634576639e-01,-2.215582885502292432e-01
2.940573658311040339e-01,-1.976572155170356060e-01
-1.514161049500523798e-02,-1.672401743370217075e-01
2.538217411480855890e-01,-3.630281467360946812e-01
3.601936369931580950e-01,-2.269569897148854820e-01
1.192572474799695081e+00,-3.861066980683123817e-01
1.348137852940153314e+00,-2.445656891083887730e-01
1.982568892449114717e+00,-3.995586289573062611e-01
1.916204093578977030e+00,-2.560052998254978007e-01
2.159762165289512481e+00,-3.710231829406479553e-01
2.196291498855281077e+00,-5.599543984293946508e-01
2.044303277627333770e+00,-6.508849569212732389e-01
2.175886975181337668e+00,-6.754768878128123433e-01
1.950092008152305212e+00,-5.184430539142574901e-01
1.667980417926037573e+00,-3.580831262817615879e-01
1.185145689713375194e+00,-1.944274401863803625e-01
7.923346621383001720e-01,-4.641933709100218991e-02
4.224321873089758039e-01,1.332501808728157600e-01
-3.894309193029276556e-02,2.788899533301075762e-01
-3.449960282708817716e-01,2.921270338022035062e-01
-3.469440547625461391e-01,1.605796075409751389e-01
-3.896833448637415098e-01,1.385359079418183592e-01
-6.475033084750678736e-01,2.808144253844729321e-01
-8.643316772775836432e-01,4.333361559308499533e-01
-9.734093333176969676e-01,6.283234121998858557e-01
-8.385660286765980187e-01,5.384672008306056190e-01
-5.109358567982374977e-01,5.432535786873515793e-01
-1.574020521909924863e-01,4.839616110145754102e-01
3.914257769803818898e-01,3.772289602242309137e-01
6.837088775642365945e-01,3.287397878671532991e-01
