-8.485318576066726015e-01,7.037261962401255566e-01
-7.116696449357994281e-01,4.462892869583814925e-01
-1.186225692002643939e+00,3.090241385605944635e-01
-1.719994530174997038e+00,2.666644688766862670e-01
-1.101609626302508138e+00,7.851169020574168267e-02
-4.682462267491772634e-01,-5.281082302787518112e-02
4.672389280873321948e-01,4.240683095599040997e-01
1.333954379200345430e+00,1.035878275370362367e+00
2.674457245815572204e+00,2.354473147412474265e+00
3.465282142577147173e+00,3.856269043681305853e+00
3.405241158593296458e+00,5.155198936622487516e+00
2.607853623622208517e+00,6.099136200192618595e+00
1.643828854909517911e+00,6.211820798275242694e+00
9.415996793412607646e-01,4.989855522368501717e+00
4.734512158089019818e-01,2.511629092753326908e+00
7.474980907969533406e-02,7.663018805054173654e-01
-1.997083088019876995e-02,6.531320028942929623e-01
-1.389453217875511459e-01,8.469748393847916779e-01
1.924385672945443937e-01,7.138020505355344714e-01
8.493338783634967193e-01,-3.013460563256106436e-02
1.004386783437473118e+00,-6.710724862277144265e-01
9.609261881611258493e-01,-1.722329490107386007e+00
9.093275829265683452e-01,-2.781063260124400305e+00
8.770485669342986679e-01,-3.329388062501548173e+00
7.921861201043812750e-01,-3.654588775740385209e+00
5.383387972059059390e-01,-3.266009486950819163e+00
3.929516569564605599e-01,-1.820202728605684328e+00
5.226792730414444588e-01,-8.901534371116094357e-01
3.945486897592151432e-01,-7.348515581977184130e-01
4.194559958999952709e-01,-6.608327412151002722e-01
5.773007401452473486e-01,-5.898408691949507121e-01
3.185114881256299602e-01,-3.009619089273938841e-01
-1.375868631627112648e-01,5.672661510692441622e-01
-6.521130130787330392e-01,6.633086446399301117e-01
-6.696619548203819328e-01,-4.217523141218450927e-02
-3.465076107714656350e-01,-1.348028896380244757e-01
-3.648872145913638620e-01,1.482281797030567116e-01
-4.800710387646698885e-01,2.755731995942555315e-02
-5.045979961714619488e-01,-1.654885218623108611e-01
-7.968153157250649210e-01,-2.554116393721282963e-01
-1.196135634047973406e+00,-6.160424410482342461e-01
-4.719263706264692493e-01,-1.555551725421445985e-02
3.172276294274626318e-01,2.175602588450644970e-01
1.027388764090778339e-01,-8.072290983901893313e-02
-8.596663072499020064e-01,-3.495737436195650027e-01
-1.745866141603714006e+00,-4.989908392868611098e-01
-2.235252253832550995e+00,-2.423484877165516527e-01
-1.978867802079815164e+00,-3.627263250756762591e-02
-1.137372322755273668e+00,3.340133692572157947e-02
-4.707936186088141350e-01,1.145203550097407541e-01
-4.707936186088141350e-01,1.145203550097407541e-01
-5.971296753239708766e-01,3.137279871878072002e-01
-9.095195599480820903e-01,1.109175461083498959e+00
-1.244365907472953614e+00,1.522220850688824623e+00
-9.582884261074954280e-01,1.248233043078816440e+00
-8.970690631488646982e-01,1.515176553291893269e+00
-1.041889356823817891e+00,2.872268203734610115e+00
-8.715361748737233683e-01,4.528617412313236557e+00
-1.155511439175217259e+00,5.009600133947123446e+00
-1.916849538799803021e+00,4.044761660320505214e+00
-2.445309296004926303e+00,2.340378326778331797e+00
-2.203639042328493503e+00,9.015602776822241315e-01
-1.564005336701498106e+00,3.023088551333467655e-01
-9.811162031096869462e-01,3.857830102000545103e-01
-5.768991212630555365e-01,3.305708012764699832e-01
-1.802269828656226647e-01,-1.857770169520316095e-01
2.345615130045603791e-01,-2.289172104147715325e-01
5.487315012649687240e-01,3.474172690027788057e-01
4.986782013494558408e-01,8.897570480355053713e-01
-1.201731293221686842e-01,1.179557240924757888e+00
-5.758394967870432701e-01,7.776611721482703521e-01
-3.523040952777909962e-01,-5.485811537592775178e-01
-1.768393900095843740e-01,-6.691748486231333670e-01
3.879700072952909640e-01,1.202856371957004011e-01
4.406842816209302072e-01,6.470738738754008290e-01
-3.570844212714374133e-01,7.176797679503374439e-02
-6.417016888985711542e-01,-9.521695801468197384e-01
-4.400121317661061515e-01,-1.324729653405252394e+00
6.913098279982440864e-02,-9.728868474817278234e-01
2.146190939586107849e-01,-9.436807393508771513e-01
5.868270870988554627e-02,-2.542331306824572756e+00
2.407043361188473118e-01,-4.282595382725189914e+00
5.332233822762412201e-01,-4.588763441687341960e+00
7.117380886134965223e-01,-3.160309281409057203e+00
6.584968773236885564e-01,-1.197871073561259880e+00
3.006512362123191506e-01,-5.167832105570489831e-02
-1.579373154264384904e-01,-2.838123273433562285e-02
-6.286105290542443047e-01,-4.799115285577026935e-01
-9.899761433854419312e-01,-7.221842369328624889e-01
-9.530673276112286985e-01,-4.176578599642756795e-01
-7.351526467333990844e-01,-1.568768854359796697e-02
-5.982898125134039624e-01,1.077739840592214060e+00
-5.296097113846558457e-01,1.750427270097573151e+00
-7.121272492284885791e-01,1.243357971050481181e+00
-3.652350227402519911e-01,-4.378570500968401169e-02
3.022435404017079219e-01,-1.002825100012517456e+00
1.762929391685358893e-01,-8.111810457426092968e-01
5.032510413211414846e-02,-4.497599238967597279e-01
6.059736755809189135e-02,-8.332155412721712340e-01
-3.698106567080837181e-01,-9.871779519135375214e-01
-8.610952893650909434e-01,-8.956099774266358393e-01
-9.045113274367595491e-01,-5.647038041826792920e-01
-6.371007160022593707e-01,1.073496766195743655e-02
-7.452715137566587877e-01,4.992152124243834921e-01
-1.212220840636716979e+00,6.284358712729377627e-01
-1.204276114707884648e+00,6.248160695096369732e-01
-7.206271013927296742e-01,5.552133349388773675e-01
-4.430126649461690880e-01,3.524819434941330876e-01
-3.227624817726916229e-01,-1.807983041778224997e-01
1.425289841269614804e-02,-5.336077562763872351e-01
3.439545112744692990e-01,-7.945271878403404875e-01
1.386760717604468951e+00,-9.348706168443126074e-01
1.625618044660652295e+00,-1.105541176208216347e+00
4.919469391826702953e-01,-1.373109518096377712e+00
-4.355828657044317764e-01,-1.473480374720810060e+00
-2.485445852600540462e-01,-2.115569552005543752e+00
4.444880836033235916e-01,-2.148435517648426440e+00
5.513654384820264598e-01,-1.370272872175089862e+00
3.995541209437777352e-01,-2.775395720585190906e-01
5.895658971415445038e-01,4.386909906818500238e-01
1.224069882129482423e+00,5.698114846647506226e-01
1.771642986778124040e+00,9.361632191421760396e-01
1.640191412882356703e+00,1.203073498373619987e+00
1.975346883202012960e-01,7.849012681968551286e-01
-1.495913627980302696e+00,2.438894730672153399e-01
-2.336396826041703179e+00,7.631014157915694263e-01
-1.766168441977390202e+00,1.892655659153835268e+00
-8.608576946641539607e-01,2.263526461350034769e+00
-1.779875383885300144e-01,2.444720326987484871e+00
-9.583166146026045329e-02,2.187685520303654929e+00
-3.042441353063756737e-01,7.713526584332308644e-01
-8.566110088767072694e-01,-6.546533422999101237e-01
-1.289211069450654668e+00,-1.062234889399531035e+00
-1.587124844048073635e+00,-8.550336033411475023e-02
-1.499168317475674916e+00,1.282600804894363788e+00
-8.696304307787287025e-01,1.029146306005317424e+00
-4.315393253370080062e-01,3.519048090212184565e-01
-5.026858539490172140e-01,2.642500197698047781e-01
3.874132733035676179e-02,-5.075274314532643993e-01
2.990443601536166285e-01,6.135948466856541023e-02
-1.720007481301632501e-01,1.423004886486319842e+00
-7.206250266127626203e-01,1.770802285462027337e+00
-1.125309856491117921e+00,1.572122132336861045e+00
-8.392371563606768614e-01,7.075948824207649590e-01
-1.808882858335702226e-01,-4.452119738591395204e-01
-2.264482956087932597e-01,-1.419362748005750685e+00
-4.246314180788338666e-01,-1.126863337002314447e+00
-4.042041727187863087e-02,1.325874893480232797e-01
4.195410839557924265e-01,-5.059542964700430856e-01
2.398103847367900610e-01,-1.771102832407172256e+00
-9.240135334932404465e-01,-2.493182958936498661e+00
-2.465830260100213778e+00,-2.289142502700484361e+00
-3.310651100769347543e+00,-1.435671412071879871e+00
-3.021278357613220056e+00,-5.174854158959996120e-01
-1.756627999984599064e+00,-7.732646062533522491e-01
-1.629829045199548687e-01,-1.243895810746883379e+00
8.297700778499287333e-01,-1.142281987629094830e+00
9.876530494204105448e-01,-1.395552690538734097e+00
4.971649433317872901e-01,-1.531681682506393027e+00
-3.468859152819158687e-01,-1.548627019871131827e+00
-1.127692200976524450e+00,-1.320516314266015012e+00
-1.251527770966445852e+00,-8.980702506985793754e-01
-5.903391128395861776e-01,-9.038830055978505085e-01
-5.812190812017773572e-02,-5.829085710271726395e-01
3.524581843601458098e-01,2.572533083979035018e-01
8.053636309158911377e-01,4.605677528721581759e-01
1.186757715131668833e+00,4.857722283890328341e-01
1.339823803209237330e+00,5.305641052972748239e-01
8.310626164235752622e-01,1.052236051089371793e+00
1.791146259405777541e-01,1.613781806642067496e+00
1.045070576745311952e-01,1.655937260635838015e+00
5.535407454972383068e-01,1.264391863132692473e+00
1.272028409143913352e+00,5.009434658886260383e-01
2.150561405628983014e+00,-1.480334616591645891e-01
2.616351035412515014e+00,-1.691526130126290717e-01
2.312137307248344875e+00,3.688811461252597401e-01
1.457008797001196676e+00,8.986253256081191410e-01
5.191450567028962348e-01,9.216083969784113483e-01
2.248574528295702868e-01,5.717557411576306148e-01
6.435790875314540971e-01,5.553773742139249681e-01
6.383411211980447586e-01,4.097384220302360269e-01
4.326799828887999966e-01,-9.663901279345786868e-03
3.514118115513107932e-01,6.184677562778334581e-01
1.494962169397404395e-01,1.317315552077935381e+00
-2.746561941878615798e-01,1.359967052521663611e+00
-2.047174313604501750e-01,1.010627016879317663e+00
3.583826299437813390e-01,3.529389302012191365e-01
3.886939328430045748e-01,2.304223384004092101e-01
3.189323381604630692e-01,4.257805094263106271e-01
-2.747831942516495429e-01,2.434472055233819487e-01
-2.406559730823022436e-01,4.115954497082138785e-02
8.610490223563532775e-01,1.136424602203175011e-01
1.193684330015397865e+00,6.503466717660807417e-01
1.912362302579843965e+00,1.885171804755057190e+00
2.530278067893487748e+00,3.016917000059224030e+00
1.858300462125220598e+00,3.477275907845672087e+00
3.466605806509759358e-01,2.740607563715421247e+00
-1.008581396942868302e+00,1.212647315118727587e+00
-1.329877691005909135e+00,1.826000828914424168e-01
-1.033028741881611534e+00,-3.017485024126473694e-02
-9.523835501206884269e-01,-9.480685219036598388e-02
-7.267771761045197509e-01,2.240022843152238152e-02
-3.227624817726916229e-01,-1.807983041778224997e-01
-2.350055203681026411e-02,-6.837603334773200148e-01
1.797049583200747147e-01,-1.175547825155959680e+00
4.013540793809695084e-01,-1.228337827651291514e+00
1.015365334779017470e+00,-9.581413386437850344e-01
1.904664009740067998e+00,-6.724453332180332366e-01
2.060832728772255429e+00,-4.145683006973879259e-01
1.142113858121600822e+00,-1.372227144586332312e-02
1.939168359367418881e-01,1.633940531881829250e-01
-1.004128843820849271e-01,3.514712419262110421e-01
1.340274374049214012e-01,5.958838788004845455e-01
-1.500831673220396345e-01,5.893078310041002243e-01
-2.969471726932741418e-01,7.636232869087397068e-01
-1.702555379827015436e-01,8.855964327382727097e-01
5.414540301070679823e-02,4.314699997718400848e-01
2.683346839349914359e-01,5.250363265688954423e-02
4.351488332208459098e-01,1.160501674024569246e-01
5.306257506542176872e-01,6.329095447723286083e-02
5.559508596443862860e-01,-5.840589915934813608e-02
4.304380378883040925e-01,2.739730595401376201e-01
2.824685934080236049e-01,1.053692065390290228e-01
2.778879658967722821e-01,-3.885180002386071085e-01
2.349243174664828460e-01,-6.079419557689459408e-01
6.646241326087554135e-01,-8.477643810376882527e-01
1.070427332192353642e+00,-9.958783040563418121e-01
8.189381672191771155e-01,-8.031580126587566371e-01
2.146190939586107849e-01,-9.436807393508771513e-01
3.436962532016064886e-02,-1.226803726274518169e+00
-4.256774793735789153e-01,-6.192221753616008462e-01
-4.482395767751041760e-01,8.891169621930259392e-01
1.917900340756362731e-01,1.443370909058408591e+00
3.140786418782525180e-01,9.547753258758053807e-01
3.816983804877014941e-01,-1.646559404890569553e-02
3.295161037494829803e-01,1.979095044795475267e-01
1.525782619039233179e-01,1.126958794950463139e+00
-2.282183522797277264e-01,1.808044141738031740e+00
-7.429524300980756557e-01,1.781166499547790494e+00
-7.847508906722993061e-01,8.390974251907782344e-01
-5.426564201277958022e-01,-2.007625047595420764e-01
-5.241260136479406473e-01,-4.031965382626566674e-01
-2.678027961102322774e-01,-3.532427824670576477e-01
3.137771052636435798e-02,-2.549651738867039080e-02
1.392350816180651929e-01,8.808467694090948985e-01
1.917900340756362731e-01,1.443370909058408591e+00
3.199934980403040807e-01,7.730048058470044836e-01
8.601076506243981665e-03,1.390444102642215685e-01
-6.812040717398615275e-01,4.742200198179712944e-01
-9.769111863006713081e-01,1.136839909457079134e+00
-9.630746708907815812e-01,1.859585696489587381e+00
-9.630746708907815812e-01,1.859585696489587381e+00
-1.102243005531670539e+00,7.183294502832308082e-01
-8.466062462835092228e-01,-2.523420895158467459e-01
-5.518486152583674809e-01,-4.132866889354279150e-01
-3.600418814217517527e-01,-2.422422812002762438e-01
-4.331107628539788146e-01,6.126723199227956940e-01
-3.154791061767923122e-01,9.668540308788098336e-01
3.599376728808550974e-01,9.815923139555622345e-01
5.696259941272310279e-01,7.027086105510790270e-01
6.999022205334251012e-01,1.398998032810187198e+00
8.463861883884490345e-01,3.030328376258613954e+00
4.128834458999256496e-01,3.726912997398984739e+00
-7.631331389080502070e-02,2.949150987083092090e+00
-6.467873413942343275e-01,1.162618724562336059e+00
-6.272444159607615255e-01,-8.830917262491443098e-02
-2.147026794359709889e-01,-5.613767198891332910e-01
-1.226162823506808525e-01,-2.767488663068654597e-01
-2.376487137472913791e-01,6.075843662869828687e-01
-4.310035467322330116e-01,1.579036680895222755e+00
-6.175310391531584342e-01,1.823965674600688702e+00
-5.178148405712528213e-01,1.440059361052416831e+00
-4.310035467322330116e-01,1.579036680895222755e+00
-2.802319774663687424e-01,1.780944930193833375e+00
3.258461055079881485e-01,1.298443065234683891e+00
8.090819619772861016e-01,7.252901978957227991e-01
8.090819619772861016e-01,7.252901978957227991e-01
2.114332767800215063e+00,2.790507197839978915e+00
4.396025682855303707e+00,6.497570124590019702e+00
5.824338123710064430e+00,8.992335144389763002e+00
5.824338123710064430e+00,8.992335144389763002e+00
5.193984084491369835e+00,8.309543997413985750e+00
3.847156755655238403e+00,6.605785932189856879e+00
2.128320978846251599e+00,3.822969428955962368e+00
6.401734120744578815e-01,1.292219486531134276e+00
-9.032118346995442193e-02,2.747640725168882733e-02
5.938919979364228885e-01,-9.200186029460961645e-01
1.027841310795722718e+00,-1.052907161509187617e+00
4.343494529226097911e-01,-9.097749455278326680e-01
-1.354913375981549040e-01,-2.860192911599623855e-01
4.076491455767514149e-01,7.668133217069096341e-01
5.318354781782101970e-01,1.024178714236795518e+00
-8.248200047147026537e-02,3.170048645348838567e-01
5.963999559182548565e-02,-5.012873260496202299e-01
-1.939322255718141375e-01,-9.335887966247333747e-01
-4.402671980548795161e-01,-4.868170192311516153e-01
1.221778165533493193e-01,-5.353128452279855010e-01
7.651613702686141938e-01,-1.209883726845993213e+00
9.943713544364585211e-01,-1.253785822755339341e+00
8.512954151533157487e-01,-4.467080062104034077e-01
7.060868703442607641e-01,2.096215874814711666e-01
3.687115274653623986e-01,-1.872045607338774786e-01
1.957225518116486110e-02,-8.897738544797271221e-01
-5.980509019446106356e-01,-9.080638466897014149e-01
-1.105094311630859805e+00,-7.126281311386489792e-01
-8.785958343526216741e-01,-7.631888424252578629e-01
-5.528843028471395193e-01,-5.925117506360306763e-01
-7.513586042581894830e-02,-7.594117126162036602e-01
1.420548719806775217e+00,-7.867133818867964035e-01
3.883083185527437919e+00,-7.022420054881168827e-01
3.654003930788042975e+00,-5.322565348639293203e-01
1.480726608207619810e+00,-1.928241181172578311e-01
-1.039338768452709449e-01,1.315199421060812557e-01
2.299019934525390121e-02,3.070066841271971159e-01
4.250493772328521880e-01,3.066824316276900997e-01
7.060868703442607641e-01,2.096215874814711666e-01
1.203159354428769756e+00,3.141033142547738043e-03
1.665015664821147823e+00,-1.125101243952403296e+00
7.812486485034055850e-01,-1.134136077367409179e+00
-4.664623026395124383e-01,-1.795873076096662635e-01
-3.600418814217517527e-01,-2.422422812002762438e-01
-4.699915620213366840e-01,-1.624697340010672897e-01
-3.845207134746546074e-01,-4.801597840302569975e-01
1.971163669446703293e-01,-4.623414231842212230e-01
5.559508596443862860e-01,-5.840589915934813608e-02
6.363873703676738991e-01,1.529124382056170073e-01
4.983577517747447283e-01,4.785303139934211636e-01
6.343991298381637320e-03,7.015486268405376480e-01
4.245962006371479386e-02,5.137858842651710223e-01
4.612179055964548136e-01,3.593425289171184311e-01
9.631579673738447367e-01,2.625542972765916305e-01
1.467733523919451111e+00,-2.292485137810430090e-02
1.167720007631174894e+00,-1.412671723483909236e-01
4.799027165445976517e-01,-2.456115522409686724e-01
4.168411717821865481e-01,-6.470894278275192146e-01
-1.637952937731333436e-01,-8.359493355432023876e-01
-7.166683003202177771e-01,-3.865295040355047340e-01
-1.157629362325923728e+00,5.568475283449613178e-01
-1.201417977130041725e+00,1.433284901015138502e+00
-3.311873037535631448e-01,1.106227551384653340e+00
1.988109119767037525e-01,-2.850123043742880391e-01
2.158994659354504242e-01,-1.135777848894700126e+00
2.299150649948485392e-01,-9.461140450502574240e-01
7.003358845028509472e-02,-5.270061037905396928e-01
-1.717719833228793791e-01,-6.044967153254199310e-01
2.290827173637534631e-01,-8.875083093242792653e-01
6.064164739876191090e-01,-9.155558764613074274e-01
5.944048252095606166e-01,-4.338631886083469391e-01
6.323768060759801801e-02,4.963709687363703632e-02
-6.681443642181597031e-01,7.626453623248043989e-01
-9.526114497429845063e-01,7.781579889604499645e-01
-1.336350892284952518e+00,1.636077791014010352e-01
-1.382910376209960157e+00,4.148135275827573576e-01
-3.885569506608664847e-01,4.482013480656864973e-02
4.847027144042406199e-01,-2.778615080725417297e-01
1.159133673262454201e+00,1.617237579549235804e-01
1.323402128454064464e+00,5.303050728760813071e-01
7.868229924603913350e-01,4.964109041296725366e-01
4.395599630839941985e-01,1.817454286268256614e-01
7.938905674833607318e-01,-2.455008922248684555e-01
1.139607100088891212e+00,-8.210864813112600524e-01
8.608736432169102892e-01,-1.100090976364153539e+00
5.390572491930678556e-01,-8.476779772286304748e-01
3.069493955029303778e-01,-4.908964517386778525e-01
-3.293361235564531420e-01,-2.336503706707234243e-02
-2.074106250906435633e-01,-2.881185226539128008e-01
1.957225518116486110e-02,-8.897738544797271221e-01
1.944641613404985148e-01,-6.393290553133351706e-01
2.248881408714294705e-01,-7.693333094880229657e-03
-1.044860738847177561e-01,-6.368338007741180824e-04
-2.961297755738370174e-01,9.896599467264026798e-03
-5.280840239104203082e-01,9.207323244672201978e-01
-1.157655443985684984e+00,2.259329339727199848e+00
-1.457833162033447261e+00,2.689348588820364316e+00
-9.750834029391644009e-01,2.109369142694162758e+00
-3.896749109594569438e-01,9.085036367078863639e-01
-7.364524125722346926e-04,-4.233135305372314611e-02
2.485294510232646525e-01,-3.711603411444713840e-01
4.299854395760100423e-01,-2.792141559425361796e-01
2.716053433055051758e-01,-1.279138642900428668e-01
9.803332956493132633e-02,-9.671810981201375834e-02
-1.672510191866602089e-02,1.735747697777444698e-01
1.114689164848974845e-01,3.869210185195660623e-01
-8.020020800936505934e-02,1.387911636752152400e-01
-7.379700080843694110e-01,-3.946957175451343280e-02
-9.677740115289805711e-01,1.815306316963626876e-01
-7.178763981729471277e-01,9.127224712064714307e-01
-1.357096768517261909e-01,8.550445823905757914e-01
3.539853129161484036e-02,-4.883507372723138590e-02
-1.442509963955847518e-01,-1.840927715325118078e-02
2.044110386082675923e-01,-2.279526658795906213e-01
2.776777163012605354e-01,-4.162293512748774238e-01
-4.930481720585559030e-02,-2.108757289689557890e-01
-4.880935606839098551e-01,-4.188374402537441976e-01
-7.918658391081460080e-01,-6.650090999609794551e-01
-1.031919472599731602e+00,-3.144365764112357908e-01
-9.073101873252720218e-01,1.218272846252578673e-01
-4.250171366618440277e-02,2.159282532707478552e-01
5.855975079636068781e-01,6.430315462850685337e-01
1.007725904553462337e+00,1.522194194169637971e+00
5.867521118362798438e-01,1.082413986939869899e+00
-3.998002619085364584e-01,-3.246989870067250594e-01
-5.615034029264972526e-01,-3.309601780072732868e-01
-1.415640345948454837e-01,1.963616598252708456e-01
-1.309035665697503847e-01,2.553657757896646840e-01
-7.309135406376117139e-01,-1.493629893549171250e-01
-9.256797826263243323e-01,-2.800915960119396142e-02
-9.355017134509073795e-01,1.548835642785731381e-01
-1.435882409714953845e+00,6.257038581892668816e-01
-2.132430524236766267e+00,1.611613836544152356e+00
-1.830098871624766588e+00,1.260019559008457080e+00
-1.940366908626929843e-01,-5.664283493362828326e-01
7.369178604251724884e-01,-1.198771591692128435e+00
8.800354831630328167e-01,-1.069286794324204148e+00
2.531264098413271713e-01,-2.561013947921430001e-01
-2.289257166534942045e-01,7.426831917845254372e-02
-6.502839158464742697e-01,-1.865353159806899808e-01
-9.484283377067852516e-01,1.301365242939930833e-01
-3.652350227402519911e-01,-4.378570500968401169e-02
-6.879091647985136060e-01,-9.532236613003055581e-01
-1.572975014840347852e+00,-2.383224925113761383e+00
-1.387733788723648942e+00,-3.700174846299319587e+00
-5.287589968780596061e-01,-3.391370122543500898e+00
1.420353144749079977e-01,-2.719669194830643733e+00
1.420353144749079977e-01,-2.719669194830643733e+00
3.563847401509100399e-01,-1.864236484682338268e+00
1.973610897972176426e-01,-5.569432459614868103e-01
-2.889243327177797305e-01,-1.804665208222352157e-01
-2.606755364380038409e-01,1.315152209991470866e-01
-2.289257166534942045e-01,7.426831917845254372e-02
-2.144681395153673065e-01,-1.301230639333145478e-01
-2.144681395153673065e-01,-1.301230639333145478e-01
-6.083600483830844396e-01,2.315619334001140228e-01
-1.902240392003930136e+00,1.210636080875497234e+00
-3.257399716777655385e+00,2.162502954205710815e+00
-3.492942876059744517e+00,2.704143758401863273e+00
-2.478647356338861130e+00,2.839256101658517828e+00
-1.457833162033447261e+00,2.689348588820364316e+00
-6.303654695998192059e-01,1.500729521315999015e+00
4.034431387386566148e-01,-3.467150160099465861e-01
9.746218904307339947e-01,-1.542167791591339654e+00
9.746218904307339947e-01,-1.542167791591339654e+00
1.102853331682343452e+00,-1.479789769664869858e+00
1.269582461888377090e+00,-1.415296165175632392e+00
2.290042904210646491e+00,-2.113008525130783521e+00
3.223984858893917949e+00,-3.755280864165736698e+00
2.928965543791273163e+00,-5.158257439227454277e+00
2.209905553065787398e+00,-5.782788387298858801e+00
1.338638503296199378e+00,-4.860165950815509284e+00
4.380785023212411255e-01,-2.635427560927818824e+00
-8.155817261409027685e-02,-7.435416331184077077e-01
-1.830261228074761826e-01,-2.898218731510418880e-02
-3.027043382051144427e-01,4.983972065140317154e-02
-3.763784662813658421e-01,2.847912342525250051e-01
-4.430126649461690880e-01,3.524819434941330876e-01
-6.783863603477936488e-01,-4.930512809370945493e-01
-8.354781477847743609e-01,-1.242773389884614721e+00
-7.708713242870810500e-01,-7.970154174133644576e-01
-3.364690675845488643e-01,-8.517453678603176259e-02
-1.846323463412252036e-02,-3.487698958822236239e-01
3.318851156070782848e-01,-4.666005146069689413e-01
1.677269466080360205e+00,-1.216665605804706285e+00
3.174860432987818282e+00,-2.263199253353131546e+00
3.481361161008473815e+00,-2.787671920749021481e+00
1.843753895054350611e+00,-2.616669147047244959e+00
-3.006014441249564295e-01,-1.971927578690318983e+00
-1.051218860099886188e+00,-1.514695199651813651e+00
-1.284520199790402994e+00,-1.691923572689027377e+00
-1.946870141925375997e+00,-9.975756101633389550e-01
-1.945629835248122275e+00,7.812268239082878485e-02
-1.543753287101296445e+00,1.088387778271415612e-01
-9.193563966941616927e-01,1.328409792052014649e-01
-6.362640774974424041e-01,-3.266569607343667858e-01
-8.354781477847743609e-01,-1.242773389884614721e+00
-7.148805651751084511e-01,-9.396119816299559613e-01
-3.600418814217517527e-01,-2.422422812002762438e-01
-4.661371938863801967e-01,7.173738125058486403e-01
-1.130444667668436987e+00,1.869640780521484746e+00
-1.457833162033447261e+00,2.689348588820364316e+00
-8.782061937692403619e-01,1.498531399596882530e+00
-3.631279919178708182e-01,3.337477551280432775e-01
1.093991402448080963e-01,-7.459695178303523688e-01
-3.471297670075743080e-01,-6.129924507808055534e-01
-6.298488664749439803e-01,8.580335690094917367e-02
-3.631279919178708182e-01,3.337477551280432775e-01
-2.165495654853201168e-01,6.884780648529079672e-01
-2.746964458636681483e-01,1.126377367706657084e+00
-3.284696405293213023e-02,7.537209681086869395e-01
-3.832674760005703174e-01,7.101952989832937754e-03
-1.287742409219184925e+00,-5.073585757657239625e-01
-1.490526914498172095e+00,-1.205312489506098483e+00
-9.327233176484952537e-01,-9.968498802921769153e-01
-3.600418814217517527e-01,-2.422422812002762438e-01
-6.109143364199648429e-01,-5.332184044664606271e-01
-7.310798131750776419e-01,-5.590344468007446554e-01
-3.963879752582506466e-01,-1.202225451689512836e-01
-9.393983638751347842e-02,1.427322246821117191e-01
7.144438253369746975e-04,-5.671428469915597596e-04
2.882457697843998079e-01,-3.235035262992321248e-01
5.153104671516604007e-01,-8.522935892356175991e-01
4.110692774991920317e-01,-1.501673472995135095e+00
-2.378398382358055674e-01,-1.811679405334869930e+00
-1.189146775577002657e+00,-1.895164738704893770e+00
-1.258535554602781881e+00,-1.303402720894726308e+00
-4.600760027291511678e-01,-3.873336063877340085e-01
-7.364524125722346926e-04,-4.233135305372314611e-02
-8.683102202962875160e-02,-8.417023181855332048e-02
-3.381591219168842977e-01,5.269978534640257922e-02
-5.059663501382092310e-01,2.204620056375021231e-01
-6.125648820824278751e-01,3.662657281808147647e-01
-1.017254470311560688e+00,9.025269196736241950e-01
-1.609079237551023889e+00,1.031153638126412364e+00
-1.961530804285865237e+00,3.443994804316249936e-01
-1.858938989175266121e+00,-2.140278453377051082e-01
-1.496827152893839497e+00,-1.786336053924281464e-01
-1.200439390349208990e+00,-3.191858998039242418e-02
-1.445464981968986873e+00,-3.850363485838109723e-01
-1.715067137275817943e+00,-8.256589605137550913e-01
-1.196893284928443935e+00,-5.988827691932564479e-01
-5.351006805845419656e-01,9.343451700527793946e-01
-2.265782735097482403e-01,1.504315615519609350e+00
-2.825667403969778779e-01,5.069522382180164932e-01
-6.475184929613463369e-01,4.784893673737471154e-02
-7.754636042042404309e-01,-3.513793464677551492e-01
-1.537753108297393201e+00,-8.897353921556219181e-01
-2.649544781847433139e+00,-9.650977158862512617e-01
-3.408965063859859423e+00,-7.669840836916598237e-01
-3.416075995339544757e+00,-5.083108305510244396e-01
-2.661131102622755762e+00,-5.911721242707664858e-01
-1.573779075437084396e+00,-7.568833461778389227e-01
-3.716054123262185760e-01,-8.988054339478941390e-01
9.077456758436860396e-01,-1.172572256070165686e-01
1.091662046752353232e+00,6.237123797078427678e-01
1.767393496162333599e-01,4.412942570260551256e-01
-2.722207002224650840e-01,5.693287996091109804e-01
-2.287147291519015802e-01,4.702019991043513980e-01
-5.473400962026914174e-01,-3.731963647877215018e-01
-8.354781477847743609e-01,-1.242773389884614721e+00
-6.990112943720329097e-01,-1.402884727419887678e+00
-2.397939882777023191e-01,-8.980960745385019317e-01
4.951976255511000291e-01,-6.290449137988040063e-01
9.915770044758805968e-01,-8.457953786455751910e-01
5.569098081588906846e-01,-8.833993369797982220e-01
-1.584550920584210654e-01,-3.844034000844442911e-01
-3.461241100611587296e-01,6.813657578798003323e-02
-6.812040717398615275e-01,4.742200198179712944e-01
-9.769111863006713081e-01,1.136839909457079134e+00
-9.630746708907815812e-01,1.859585696489587381e+00
-1.922059375942909987e-01,2.450598250860017924e+00
9.367882307546648857e-01,2.432090813781676797e+00
1.674552153529707432e+00,1.509571883978323870e+00
1.330399879599594160e+00,3.968976883367326680e-01
4.107518379960176658e-01,-1.030041751258797406e-01
2.545099766322557744e-01,-3.455918005129703929e-01
6.531777135230179554e-02,-2.087931558489324879e-01
-2.759232972733016709e-01,1.161842330603178874e-01
-7.364524125722346926e-04,-4.233135305372314611e-02
-4.668552770711760780e-01,-1.131603876090049310e+00
-8.681667001139203865e-01,-2.683809656883407779e+00
-2.560752637808683119e-01,-3.515559984690515005e+00
9.671001879307045135e-01,-2.793385601265044649e+00
2.426176173894265986e+00,-2.312505159505832797e+00
3.187310804533878716e+00,-2.761069567369894617e+00
2.492860346102953262e+00,-1.897512243392678766e+00
1.449391718432462284e+00,-6.828857197227058418e-01
8.192376159411685066e-01,-2.778386537833349434e-01
1.039457187539418320e-01,4.407086722062901751e-01
-8.631104510726234080e-01,9.802921581455634192e-02
-1.650120540214377485e+00,-1.247716573968762566e+00
-2.893682718588449720e+00,-1.669424271329523757e+00
-4.316048534747358723e+00,-1.268875622364513012e+00
-4.290544427359504809e+00,-9.068385209117565404e-01
-2.670482930333238691e+00,-6.679984770657639848e-01
-8.389836211089823914e-01,-8.224617470378424722e-01
-1.655145646591737463e-01,-4.054068201794742698e-01
7.560622152738763480e-02,1.315776047586810771e+00
2.928613398750216090e-01,3.018608288422388153e+00
4.331960123006455693e-02,3.798428675123832310e+00
1.255216543371052151e-01,4.213588559815369727e+00
4.035399140717941258e-01,4.114425432901154700e+00
9.003874774601903705e-03,3.064284724458939291e+00
-5.451581159981319091e-01,1.559796119782495660e+00
-6.915063602314120983e-01,5.093780513561637635e-01
-5.800825150782409345e-01,-6.622738913840661538e-03
-7.502484027493815100e-02,-2.217429175813332987e-01
5.123542074007094715e-01,-5.056527665031929075e-01
1.311468859735378967e+00,-7.504465715673765969e-01
1.719747073224957790e+00,-4.279676442429674599e-01
1.504112931360346517e+00,-2.747963189287457864e-01
1.109932841928634728e+00,-6.839098073048991422e-01
6.328817067916424621e-01,-7.398265864807755943e-01
2.400051449233234213e-01,-4.362078877021837164e-01
3.094497009654949005e-01,-1.129495180560496775e-01
3.897285377356101699e-01,4.458820500441812613e-03
4.729204705707171774e-01,2.876309822271418404e-01
7.614278282706017364e-01,4.800813720143656260e-01
7.676137821877739853e-01,1.509602551932236747e-01
5.826735185947963247e-01,-5.364510519059140226e-01
4.437812216146824196e-01,-1.112358209003914578e+00
6.902605666516840877e-02,-1.820866447991779991e+00
-7.175444205854430990e-01,-2.264519341739082314e+00
-1.517190522186829593e+00,-2.123873524143964797e+00
-1.517190522186829593e+00,-2.123873524143964797e+00
-1.517190522186829593e+00,-2.123873524143964797e+00
-1.444866127591248439e+00,-1.501790504665614367e+00
-9.725291529512888333e-01,-7.243280524748023641e-01
-8.850382843553982193e-01,2.673500535821397017e-01
-8.947935526310709653e-01,1.197154503186293573e+00
-6.227830774581947226e-01,1.907721831453794703e+00
-2.578709532418506645e-01,2.012564225863179956e+00
-1.118077525740324429e-01,1.770506050127533815e+00
-1.118077525740318878e-01,1.770506050127533371e+00
-1.599453265040784722e-01,1.368716556605560575e+00
-2.874725991883482767e-01,4.813543595682806542e-01
-2.589833196092561352e-01,-8.457728819670853881e-02
-2.224724310880157527e-02,-1.789767065882580666e-01
-2.900180935903664547e-01,1.612880419268082344e-01
-4.733124957284923773e-01,6.780060659465978468e-01
-2.749047672078574478e-01,8.858837272927113649e-01
-5.001945714216256000e-01,7.656055765500251464e-01
-8.811329924125383961e-01,4.157478891543602839e-01
-1.508575047068842379e+00,-9.734705846844826649e-01
-2.033438604663044824e+00,-2.340742785841426254e+00
-1.762318885912518507e+00,-2.649172545849857396e+00
-9.185188018109472496e-01,-1.862498236711121802e+00
-2.949107399235406657e-01,-1.123582094182947522e+00
3.387471014727222451e-01,-2.269791086680387426e+00
8.710759869410920064e-01,-2.800898494985955889e+00
6.173249169510390821e-01,-1.491603469190877274e+00
-7.098121346929013066e-03,-4.035854926080705285e-01
-4.389314358216852008e-01,5.958727843145330549e-01
-2.749047672078574478e-01,8.858837272927113649e-01
-6.701360092039852258e-03,-3.539160212488565160e-01
1.106133585489116333e-01,-2.263401202189295525e+00
-6.778699836410179147e-02,-3.303045000179458679e+00
-3.288949185259695263e-01,-2.708260487161615160e+00
-3.639036885718803238e-01,-1.844377639351250986e+00
-1.059116368628530980e-01,-1.433550421527606256e+00
-1.412991649707489306e-01,-1.131601551723351529e+00
-1.412991649707489306e-01,-1.131601551723351529e+00
6.803343614554199226e-01,-4.082045124024873961e-01
1.381594940106188441e+00,7.036754845522316115e-01
1.645113052614462834e+00,1.741539927004016386e+00
1.327223515707275148e+00,1.996992232739126294e+00
7.464617176649219754e-01,1.379107897018008178e+00
2.700827087509680702e-01,4.121527718238539029e-01
5.167674057496440820e-01,-4.274793531322309548e-01
1.030405402113701463e+00,-5.871291684338999506e-01
1.379628363208268427e+00,-6.602696427819721992e-01
1.371936747183330141e+00,-6.428526587034736339e-01
5.078655843955668381e-01,-2.864483017055994285e-01
-1.435722346848539721e-01,2.818232226294807297e-01
5.892086715450414736e-02,4.560760566869133670e-01
3.172276294274626318e-01,2.175602588450644970e-01
7.265911151446948768e-01,1.171790409063339367e-01
7.795207371228751736e-01,3.330653316568455979e-01
4.989789465950783542e-01,5.682200754769162199e-01
2.888783537675865820e-01,5.301881736881534080e-01
4.303527079669032807e-01,1.888371806995235436e-01
7.301809132700566307e-01,-2.097887350128274930e-01
9.963796316363957573e-01,-4.229234048724445083e-01
9.817994130659086771e-01,-5.051123485333539609e-01
6.392512996108198342e-01,-2.767926736071842919e-01
-3.700046366600633768e-02,6.638253862293468088e-02
-5.971296753239708766e-01,3.137279871878072002e-01
-5.971296753239708766e-01,3.137279871878072002e-01
-1.236466973684564152e+00,7.226141206030288755e-01
-1.168702794782843890e+00,1.400901420061667180e+00
-4.104325450759641059e-01,1.884482084885114928e+00
-5.700763833797445335e-02,1.593111033735788329e+00
2.740190812830426426e-01,3.522128077914464805e-01
-3.026347665268787693e-02,-2.390842567709584587e-01
-9.222030467937217812e-01,-2.683251511861056149e-01
-1.196135634047973406e+00,-6.160424410482342461e-01
-8.869178126081453950e-01,-7.752650289142501983e-01
-5.159196598771733644e-01,-8.591729486466994636e-01
-3.021209392865611409e-01,-7.221850323068983446e-01
-3.164893885005449770e-01,-4.215875929125110222e-01
-5.339952084030022972e-01,-1.481931132271096796e-01
-8.837439537069252671e-01,-3.691783854923887109e-02
-9.523809551923013705e-01,1.987004510145020386e-01
-9.609634020193170700e-01,-1.420237295736327399e-01
-1.196135634047973406e+00,-6.160424410482342461e-01
-5.716203151055296861e-01,3.028241783188675429e-01
-3.422816121578786674e-01,1.378183535447706776e+00
-2.154400119763542620e-01,1.546982081287499478e+00
8.639943482392713203e-02,1.277266018793438596e+00
-2.813882493491944858e-01,7.051908223405409792e-01
-6.427586321504846767e-01,4.207381175039785481e-01
-6.948483097357043281e-01,3.085409240982675549e-01
-8.678171970781197730e-01,-1.957176202122263287e-01
-1.196135634047973406e+00,-6.160424410482342461e-01
-7.280413776321441599e-01,-5.238761637280642258e-01
-1.171825975000448383e-01,1.281083414761686155e-02
1.847181010655257472e-01,8.914952060590549676e-01
6.207376609793462396e-01,1.426225203539532638e+00
7.792594823173707441e-01,1.079060199145835508e+00
4.207867832118467599e-01,4.103310145427987443e-01
-1.598835374109537633e-01,-4.385278550210961468e-01
-1.598835374109537633e-01,-4.385278550210961468e-01
-4.059530691522627022e-01,1.062859371037157691e-01
-9.700348609833584490e-01,-1.244377031998854799e-01
-1.196135634047973406e+00,-6.160424410482342461e-01
-7.572989027811162233e-01,-7.321193813890432001e-01
-2.748830178731829776e-01,-9.088557151859928407e-01
1.275542128572712264e-01,-7.990866348269767272e-01
1.690156502385357917e-01,-3.776583252573854632e-01
5.743396907779362709e-02,-6.012064236374897036e-02
3.443607892223662925e-01,-4.898194910570458256e-03
-2.802448556373132726e-01,-3.274132530729790824e-01
-1.196135634047973406e+00,-6.160424410482342461e-01
-8.285463109599127129e-01,-5.170911760014765823e-01
-1.436311256200982212e-01,-5.192780917478330149e-01
1.581804693360165104e-01,-9.452345446222382153e-01
-3.221913390509079794e-02,-1.225987316260605864e+00
-2.534028942473143253e-01,-4.503934704699162350e-01
-3.665232932899412654e-01,6.321102563556993958e-01
-5.034609236764362450e-01,7.804909177622255667e-01
-1.394554172112152157e+00,2.919075679135771928e-01
-1.828776942224316970e+00,6.879028749832039047e-02
-1.395340114325730241e+00,1.788704467092128991e-01
-1.086658446165841063e+00,1.420342369284647299e-01
-9.008515588725397594e-01,2.315592315392761280e-01
-1.352022395067490890e-01,6.760258482052137197e-01
4.440119006794435719e-01,7.895203219057490562e-01
1.859713837931157576e-01,5.976582398624603193e-02
-6.649729567037825362e-01,-5.952932823947920671e-01
-1.196135634047973406e+00,-6.160424410482342461e-01
-7.280413776321441599e-01,-5.238761637280642258e-01
4.988684380806319707e-01,-6.955648302214836320e-01
4.569256074228809639e-01,-7.281962835688168267e-01
-6.649729567037825362e-01,-5.952932823947920671e-01
-1.196135634047973406e+00,-6.160424410482342461e-01
-7.280413776321441599e-01,-5.238761637280642258e-01
-2.115438009865602265e-01,-6.432097088226677029e-01
1.305820809179704944e-01,-9.264284338601694868e-01
8.069694137767756681e-01,-1.038133186744686354e+00
1.450235877733245138e+00,-9.424833572036751539e-01
5.839186216673299956e-01,-3.220611629082220095e-01
-6.377296082098695695e-01,1.509117221248940099e-01
-4.543799244304050355e-01,-1.702391849604841245e-01
-2.690524014263366293e-01,4.220062660708406854e-01
-3.105659466506849875e-01,1.595434975900913877e+00
-4.735928925781138742e-03,2.343919646682568914e+00
6.022023634999368324e-01,2.590976108790972621e+00
9.051344541616458406e-01,2.778540585751373193e+00
4.972184497389519620e-01,2.565873876835369494e+00
-5.593372565239469463e-01,1.870732682768322164e+00
-1.790113215188077866e+00,6.811935568556359843e-01
-2.631838966845269745e+00,-9.295249551363953255e-01
-3.140931835020000396e+00,-2.986943600810311406e+00
-2.967202381843648595e+00,-4.431093661592814037e+00
-1.994457409552818916e+00,-4.143792937713124402e+00
-6.869077100256185675e-01,-2.417227875335661746e+00
1.270044001276946055e+00,-9.650867849444658697e-01
4.279176865495085913e+00,-1.317328726321109311e+00
5.050362279668596521e+00,-1.478850649299321418e+00
2.946207069507535969e+00,-1.066959993698712417e+00
1.407372783473536559e+00,-8.269685218200955035e-01
6.094967385078065014e-01,-6.220133006838175493e-01
9.316366530794892298e-02,1.221848497104843258e-02
-1.842716038102018283e-01,2.589209404323932207e-01
-3.997557231447269599e-01,4.166372092371329466e-02
-3.538262320558275831e-01,-9.792619395740997934e-02
3.116753626560269108e-01,-4.588749413813217881e-01
4.433220290455907042e-01,3.527974623462435955e-01
8.639943482392713203e-02,1.277266018793438596e+00
1.839082432960941760e-01,1.325430939731170987e+00
2.866641525491737674e-01,1.482783987865284425e+00
8.639943482392713203e-02,1.277266018793438596e+00
-8.663233492388780488e-02,5.912697132015032331e-01
-2.372287761171575637e-01,-6.812041733807040755e-02
-4.040533949801038971e-01,-4.323632135435027113e-01
-3.105399583336355684e-01,-3.323298006931132975e-01
-6.241776046859515148e-01,-5.921992130240043561e-01
-8.337605026725617430e-01,-1.407957307112428280e+00
-6.835267360059675834e-01,-2.037129016151075334e+00
-3.131546233981455929e-01,-1.698266052963911532e+00
-1.679518580986172627e-01,-8.827454963972275470e-01
-4.176778214340710060e-01,5.094907482424656381e-02
-4.072132456019470492e-01,7.296235011604633725e-01
1.415620955698951855e-01,7.829941119807056760e-01
1.065147915184442295e+00,1.450361366447174005e-01
1.700750064894758218e+00,-5.696549215141543110e-01
1.422137852161120541e+00,-6.129378885625015316e-01
6.083324578231250612e-01,-1.170422392838976061e-01
-3.051857108263294482e-01,-5.338953307724174369e-02
-9.614767504892433037e-01,-4.203566465639331229e-01
-1.196135634047973406e+00,-6.160424410482342461e-01
-1.440247846025062950e+00,-6.978722340502185872e-01
-2.074951503416673226e+00,-8.430168256316288300e-01
-2.628370231797650280e+00,-6.608492238371966865e-01
-2.441021612154713694e+00,-2.497010404827493604e-02
-1.389811188769884742e+00,6.134082252942952840e-01
-4.127004168346202762e-01,8.671717686211380949e-01
-9.220526524599546858e-02,9.751463967466755811e-01
-8.352559091866194885e-02,6.698140052142184109e-01
-1.513485510598154837e-01,2.947023214303511329e-01
-1.513485510598154837e-01,2.947023214303511329e-01
-3.630396390540743812e-01,9.923544465325744024e-02
-4.619778535947437481e-01,-4.274657727592330314e-01
-4.730646202629326669e-01,-9.934295942166535553e-01
-6.226188325447623573e-01,-1.061300912183166245e+00
-5.382241436152994662e-01,-1.064730707601902138e+00
-3.888934089916922243e-01,-4.179849038810404260e-01
5.807419506481413529e-02,1.264854645766681773e-01
6.963926423826742873e-01,-2.254336564072542959e-01
4.751087473173816744e-01,-1.734560668019130003e-01
-6.904221131838714220e-02,-5.273119253354204006e-02
-6.227181989411104679e-01,-5.424761691064938773e-01
-9.493700972634611102e-01,-8.731046356880577397e-01
-6.312905083232517311e-01,-7.142803133477306776e-01
1.728993820372709822e-01,8.672619264901952618e-02
7.553861721434087517e-01,4.207101474591123380e-01
1.284649763145272683e+00,1.767296447096362577e-01
1.132519465706425033e+00,2.757990705717348612e-01
1.557849417326164221e-01,5.446191818310038846e-01
-4.297896736629588932e-01,4.411578982071794885e-01
-5.798233073582387265e-01,3.611145438127677521e-01
-3.095084342752034701e-01,1.328261687950529346e+00
-2.120150758457201023e-01,3.014692621292903496e+00
-1.367745553784920132e+00,3.120704156239160643e+00
-3.501400878707042974e+00,2.565401443787305169e+00
-4.804121224538255852e+00,2.948821932589555050e+00
-4.821226356910133681e+00,2.915561417056387938e+00
-3.519593951824262490e+00,2.530025453829683357e+00
-1.656041736997837299e+00,1.386734192557604661e+00
-3.499094512390578116e-01,-1.995366598643340816e-01
-2.339333194479868427e-01,-5.150279313249035429e-01
-8.662134568077762831e-01,-3.146165779530220030e-01
-8.789020259924849032e-01,-6.380802965822315320e-01
-4.309798810495798493e-01,-4.828428385986032745e-01
-2.145496109948411834e-01,1.079468628776910077e-01
-2.637475701562469466e-01,5.104910439497506447e-01
-5.304860571076325249e-01,-3.014354811311258098e-02
-8.243590767126394159e-01,-4.116435585412897558e-01
-7.694191282722003811e-01,4.285061217593855165e-02
-9.101112858831168495e-01,5.395117639236657325e-02
-1.019889951770651004e+00,-2.007152902515014770e-01
-1.082371707661162530e+00,-4.401121806141155557e-01
-1.196135634047973406e+00,-6.160424410482342461e-01
-1.231979904913205470e-01,1.852150878329121564e-01
5.096028599931075043e-01,4.299151547111796923e-01
-2.798052017380207035e-01,-4.079267583260202668e-01
-9.683057061540701893e-01,-4.060351405248316947e-01
-1.412535202839985793e+00,3.878912865219553696e-01
-1.667207371636820534e+00,8.553535928450579640e-01
-1.892333858213177900e+00,1.205165486050434609e+00
-1.892333858213177900e+00,1.205165486050434609e+00
-2.152783328591481915e+00,5.604636559508594518e-01
-1.857970212800752252e+00,6.813210385147876191e-02
-6.365768338487348688e-01,4.100046775893365081e-01
-1.867749173592405110e-01,3.469050552430387735e-01
-6.341141721517637997e-01,-7.188328212349998081e-02
-1.073030424586901344e+00,7.178808605468467441e-02
-1.973090142928628499e+00,1.143272052807190742e-01
-1.750767451436825439e+00,-7.669077997905270061e-02
-7.816382136235290323e-01,-8.007390126665980823e-02
3.781914627569439857e-01,-3.361389364919857292e-01
7.601432709044290137e-01,-5.755705395098805743e-01
1.047780533827523453e+00,-6.015007466895231358e-01
8.340095501045398096e-01,-3.762142900377695720e-01
8.837079898680483270e-01,-4.488163110848190085e-01
3.843858283159604650e-01,-2.410783860528305234e-01
-1.168987720023426796e-01,-5.224240316546111679e-02
-3.741899336058797099e-01,-1.068661185733824071e-02
-1.032972944357099243e-01,5.851882687353791024e-01
4.381923977163766359e-01,1.196390441603632837e+00
5.869350792974289410e-01,9.357843282722112521e-01
6.275813172406176088e-01,3.750215911146492775e-01
8.170261672262761898e-01,5.863589794030493046e-03
1.044428317424898722e+00,-3.574305972342182725e-01
1.392133645806170050e-01,7.344915380149496555e-03
-1.523202443320338384e+00,3.526020901341248015e-01
-2.709843921113354703e+00,-6.519265412954095007e-02
-2.493081591749320758e+00,-2.895946495095679807e-01
-1.317227868726183804e+00,-5.787836223496278104e-02
-9.703632460597432230e-01,5.397843861442918056e-01
-1.432837541451837282e+00,6.965652642738954237e-01
-1.424519635879548440e+00,7.175587048904241705e-02
-1.012612809395732949e+00,-3.739753476442254643e-01
-6.518549665619209899e-01,-7.242382518267587166e-02
-9.794345794887832080e-02,1.285662293900753372e-01
1.161103675771281152e+00,-4.410141100370129075e-01
2.618740051885256825e+00,-1.414091041647026481e+00
3.392778359841458702e+00,-1.804373416056884727e+00
2.394536578143366068e+00,-1.335390418982199456e+00
9.608461691848386721e-01,-2.011982596449399807e-01
2.679834419707481930e-01,6.413718424267452756e-01
-8.332278001146076196e-01,5.738176768300560227e-01
-1.336065717397828756e+00,-1.390657817438211707e-01
-2.879448751582978083e-01,4.228642518513958670e-02
6.116260459520136417e-01,-7.452828852096372858e-02
5.760427743869422912e-01,-9.185697388244650208e-01
1.339396693076122247e-01,-1.127957294730104199e+00
-4.680815224509944361e-01,-1.019185813416622510e+00
-7.886794026969042859e-01,-1.530222917375491543e+00
-5.717037781279566966e-01,-2.153483166147368344e+00
-4.470297490006348157e-02,-1.602386088805783038e+00
4.616079918703082097e-01,-4.178410616994668314e-01
6.984665107269906192e-01,-2.446728115917444490e-01
4.557212649739507682e-01,-1.462855212200651733e+00
1.403732499972251968e-01,-2.040452280084664061e+00
2.220578149034017068e-01,-1.374766527058157051e+00
1.032219615121876266e-01,-3.418931762070831493e-01
-5.947679988949190477e-01,-1.052876667930799232e-01
-1.014296549134394265e+00,-1.352261420413486959e-01
-1.009841433630678020e+00,-3.737339636946415689e-01
-1.196135634047973406e+00,-6.160424410482342461e-01
-1.196135634047973406e+00,-6.160424410482342461e-01
-5.716203151055296861e-01,3.028241783188675429e-01
-3.155791008132007303e-01,5.105265446167647214e-01
-4.880504903443761977e-01,2.648621963775422972e-02
-3.102191671120117511e-01,-1.478007753621892739e-01
-4.418251800246578154e-01,-6.437320330220147602e-01
-6.810412341428888627e-01,-5.045009974493098737e-01
-2.369826196231943627e-01,-3.102339477522488703e-02
3.353711614123638940e-01,-2.317313309758490258e-01
4.828772766421232654e-02,-2.150820426420859133e-01
-2.470370771888888151e-01,5.266981305663392954e-02
-1.856647268070683310e-01,-1.219249128611989141e-01
-2.600177910211465271e-01,-3.417399234227229132e-01
-6.284119296305210045e-02,1.923154930623671363e-02
-1.263249323850096917e-01,4.207738106054100258e-01
-4.561258367119847557e-01,2.082479884978652163e-01
-4.071552924257313966e-01,5.589527644092376346e-02
-3.860499818976456665e-01,2.254928470276303804e-02
-2.485925481049531260e-01,-6.453024498542189735e-02
-1.664858381781053609e-01,-2.003455290457891447e-01
-1.129132352788422833e-01,-2.236712774049109675e-01
-4.602506682355774446e-03,-1.592385862138313568e-01
-7.805895644376949216e-02,-1.636430012417300003e-02
-9.181213289391905452e-02,2.391458922704895740e-01
2.307125416509386850e-01,7.621854711237104063e-02
8.940263824467443721e-01,-3.834918164912168859e-01
1.718691850445073444e+00,-7.620131723547487468e-01
2.125928774833427237e+00,3.366196701945236569e-01
1.543828775464666903e+00,1.812072866649519165e+00
7.670011511356772393e-01,1.350073646752497858e+00
5.942244946432845287e-01,4.321051265457626633e-01
5.072627111070057149e-01,3.797806239566373088e-01
-8.846001406402406730e-02,-3.202746798605964756e-02
-2.367998808821961954e-01,-5.759514055094775431e-01
1.327927310076879586e-01,-6.344631374421517700e-01
6.610932610550869226e-01,1.871831128425482382e-01
7.115112373235970011e-01,5.144467819389295649e-01
6.008994095227212506e-01,4.685078828960544811e-02
5.559508596443862860e-01,-5.840589915934813608e-02
4.304380378883040925e-01,2.739730595401376201e-01
1.351400319094212266e-01,8.930781442067120546e-01
4.306949637012379845e-02,9.965842775405048259e-01
2.257993676968800267e-01,2.385737645523214323e-01
4.852150938863047380e-01,-3.719406179999570905e-01
4.143442661606104860e-01,-1.103134717096190300e-02
1.825020654729239966e-01,1.021697410408293621e-01
-1.759459213211955197e-01,4.718567324067413776e-02
7.161856765315456619e-02,1.034510204114750531e-01
7.065215292985077555e-01,-4.028749990598599201e-02
5.389619110205433605e-01,-3.721815505232001220e-01
-9.688583492103985950e-02,-3.001133199687451847e-01
-4.529988325717180797e-01,8.170824363611338403e-02
-4.181598539858220054e-01,1.338676826749278570e+00
1.935713909940359884e-02,1.838436128328900354e+00
1.586699938500271134e-01,1.187724856420584008e+00
-7.046882893391077651e-01,8.533586891375527506e-01
-1.574856207163073618e+00,8.781484954758931316e-01
-1.806013813288625647e+00,1.014388964802592330e+00
-5.041850893307756598e-01,1.025548789481110834e+00
1.682549365673784880e+00,5.129521963391918682e-01
3.132620951740826776e+00,-1.680070949770538224e-01
5.038807749705109806e+00,-5.617452241628910770e-01
6.068147476535250995e+00,-4.250306642179676464e-01
5.344695958013303994e+00,-4.513044425760442402e-01
2.823176999462907677e+00,-5.712939806414165655e-01
7.914155342522684045e-01,-2.722199332067355981e-01
1.139775232332429722e+00,2.644797011779483897e-01
1.062596000437926014e+00,7.362163907969406784e-01
1.024862295252163102e+00,1.033387016120839386e+00
7.449038039978989056e-01,9.765875242918226062e-01
6.576557041724150066e-02,3.060223033933781589e-01
-1.937389525484750352e-01,2.418706417416288390e-01
-4.273524734062117414e-02,9.781426551781061685e-01
8.639943482392713203e-02,1.277266018793438596e+00
5.831393436586188583e-01,2.641446832583290716e-01
2.217101180495796076e+00,-7.067847085062428647e-01
3.795709447957454685e+00,-7.156306352901394829e-01
5.282492211536629512e+00,-4.463610769747475837e-01
6.118573929569612879e+00,-4.803127577971234574e-01
5.841087907052623152e+00,-9.676553019576203951e-01
4.504450619720233639e+00,-1.523858476729093248e+00
2.566965276491674164e+00,-1.302760303734362246e+00
7.607751426363742464e-01,-4.401222245376680831e-01
-2.387887697797510811e-01,3.418468847497454499e-01
-1.237030563792878603e-02,6.418478169451632409e-01
6.576557041724150066e-02,3.060223033933781589e-01
-2.095576218365228782e-01,5.565538267386227478e-02
-4.756140464598204165e-01,2.553459295751495661e-01
-6.069943883487781688e-01,-5.721018936208170647e-02
-5.782343140977311974e-02,-8.336017245271397647e-01
1.583273102761949769e+00,-1.249540982974583159e+00
3.338486395392349593e+00,-8.888568323053699372e-01
3.338486395392349593e+00,-8.888568323053699372e-01
2.093047853658167590e+00,-1.218449853008324535e+00
1.039223098150599434e+00,-1.129844964934958007e+00
1.608876727997964884e-01,-1.032839085995202355e+00
-2.679745037881907099e-01,-8.536051355831996146e-01
-3.145626174821825050e-01,-9.868772526106879550e-02
-2.038711017346528029e-02,8.788963005562204778e-01
8.639943482392713203e-02,1.277266018793438596e+00
-6.079217840151823760e-01,5.884307894207615464e-01
-9.517756151311731472e-01,3.072654377875372878e-01
-6.948483097357043281e-01,3.085409240982675549e-01
-5.720752193112687012e-01,-8.665037353429094757e-02
-4.497343625653595356e-01,-7.868489522848827189e-01
-5.241787004993569976e-01,-1.035051817068884716e+00
-7.922873647967142441e-01,-6.145246546712865854e-01
-7.309135406376117139e-01,-1.493629893549171250e-01
-3.428419344636041144e-01,5.363064747744284572e-02
-5.478227767867898113e-01,6.412623879432145790e-02
-6.157119436666381729e-01,-1.747681272467320190e-01
-3.585827223392930585e-01,-4.509265212988561866e-01
-6.649729567037825362e-01,-5.952932823947920671e-01
-1.196135634047973406e+00,-6.160424410482342461e-01
-9.422439933708222082e-01,-2.562450565319344675e-01
-5.712009965713600312e-01,1.748125645681670309e-02
-5.478227767867898113e-01,6.412623879432145790e-02
-5.756489334355003873e-01,-1.947994262239882701e-01
-2.797500036167750032e-02,1.645830794437790345e-01
1.856990795360860202e+00,4.202542091494740339e-01
4.534893935431722589e+00,-1.584114516129070116e-01
6.384844531033654569e+00,-1.045222514485682375e+00
6.565603720345091432e+00,-1.659342206946426534e+00
6.565603720345091432e+00,-1.659342206946426534e+00
6.565603720345091432e+00,-1.659342206946426534e+00
5.867995349539131489e+00,-1.258981340892349365e+00
6.187766965553719523e+00,-7.823379788960445058e-01
7.002330254989081126e+00,-9.313825328114384572e-01
6.742749021156083877e+00,-1.397215873765558003e+00
4.251816664179858485e+00,-1.724538450922238120e+00
8.740922478303727594e-01,-1.595213405310267785e+00
-8.086301375198082786e-01,-7.625473434419571817e-01
-7.082321082640945509e-01,6.763346015384424925e-02
